subject ID,labels,0,1,2,3,4,5,6,7,8,9,10,11,12,13,14,15,16,17,18,19,20,21,22,23,24,25,26,27,28,29,30,31,32,33,34,35,36,37,38,39,40,41,42,43,44,45,46,47,48,49,50,51,52,53,54,55,56,57,58,59,60,61,62,63,64,65,66,67,68,69,70,71,72,73,74,75,76,77,78,79,80,81,82,83,84,85,86,87,88,89,90,91,92,93,94,95,96,97,98,99,100,101,102,103,104,105,106,107,108,109,110,111,112,113,114,115,116,117,118,119,120,121,122,123,124,125,126,127,128,129,130,131,132,133,134,135,136,137,138,139,140,141,142,143,144,145,146,147,148,149,150,151,152,153,154,155,156,157,158,159,160,161,162,163,164,165,166,167,168,169,170,171,172,173,174,175,176,177,178,179,180,181,182,183,184,185,186,187,188,189,190,191,192,193,194,195,196,197,198,199,200,201,202,203,204,205,206,207,208,209,210,211,212,213,214,215,216,217,218,219,220,221,222,223,224,225,226,227,228,229,230,231,232,233,234,235,236,237,238,239,240,241,242,243,244,245,246,247,248,249,250,251,252,253,254,255,256,257,258,259,260,261,262,263,264,265,266,267,268,269,270,271,272,273,274,275,276,277,278,279,280,281,282,283,284,285,286,287,288,289,290,291,292,293,294,295,296,297,298,299,300,301,302,303,304,305,306,307,308,309,310,311,312,313,314,315,316,317,318,319,320,321,322,323,324,325,326,327,328,329,330,331,332,333,334,335,336,337,338,339,340,341,342,343,344,345,346,347,348,349,350,351,352,353,354,355,356,357,358,359,360,361,362,363,364,365,366,367,368,369,370,371,372,373,374,375,376,377,378,379,380,381,382,383,384,385,386,387,388,389,390,391,392,393,394,395,396,397,398,399,400,401,402,403,404,405,406,407,408,409,410,411,412,413,414,415,416,417,418,419,420,421,422,423,424,425,426,427,428,429,430,431,432,433,434,435,436,437,438,439,440,441,442,443,444,445,446,447,448,449,450,451,452,453,454,455,456,457,458,459,460,461,462,463,464,465,466,467,468,469,470,471,472,473,474,475,476,477,478,479,480,481,482,483,484,485,486,487,488,489,490,491,492,493,494,495,496,497,498,499,500,501,502,503,504,505,506,507,508,509,510,511,512,513,514,515,516,517,518,519,520,521,522,523,524,525,526,527,528,529,530,531,532,533,534,535,536,537,538,539,540,541,542,543,544,545,546,547,548,549,550,551,552,553,554,555,556,557,558,559,560,561,562,563,564,565,566,567,568,569,570,571,572,573,574,575,576,577,578,579,580,581,582,583,584,585,586,587,588,589,590,591,592,593,594,595,596,597,598,599,600,601,602,603,604,605,606,607,608,609,610,611,612,613,614,615,616,617,618,619,620,621,622,623,624,625,626,627,628,629,630,631,632,633,634,635,636,637,638,639,640,641,642,643,644,645,646,647,648,649,650,651,652,653,654,655,656,657,658,659,660,661,662,663,664,665,666,667,668,669,670,671,672,673,674,675,676,677,678,679,680,681
sub_1,normal,640.0,636.0,630.0,656.0,670.0,644.0,660.0,608.0,618.0,648.0,624.0,642.0,612.0,636.0,668.0,672.0,690.0,694.0,706.0,688.0,630.0,620.0,608.0,640.0,658.0,670.0,652.0,648.0,672.0,612.0,368.0,870.0,608.0,630.0,618.0,628.0,622.0,600.0,628.0,620.0,648.0,644.0,616.0,678.0,688.0,622.0,614.0,594.0,580.0,584.0,662.0,668.0,674.0,646.0,650.0,662.0,678.0,692.0,668.0,652.0,668.0,628.0,670.0,684.0,672.0,648.0,654.0,684.0,642.0,624.0,636.0,656.0,692.0,694.0,674.0,692.0,698.0,708.0,662.0,678.0,666.0,662.0,690.0,694.0,636.0,658.0,664.0,654.0,702.0,710.0,722.0,692.0,694.0,690.0,684.0,682.0,692.0,684.0,698.0,660.0,720.0,672.0,674.0,666.0,686.0,666.0,636.0,644.0,652.0,642.0,616.0,618.0,610.0,656.0,686.0,654.0,638.0,656.0,662.0,660.0,666.0,676.0,672.0,638.0,636.0,630.0,642.0,652.0,646.0,692.0,680.0,708.0,684.0,642.0,662.0,624.0,646.0,624.0,616.0,602.0,604.0,582.0,620.0,612.0,674.0,672.0,678.0,674.0,690.0,684.0,636.0,610.0,620.0,606.0,626.0,654.0,656.0,702.0,684.0,720.0,722.0,670.0,640.0,652.0,648.0,652.0,656.0,638.0,654.0,614.0,636.0,680.0,692.0,678.0,670.0,656.0,636.0,622.0,618.0,636.0,382.0,296.0,624.0,670.0,706.0,682.0,644.0,650.0,648.0,678.0,684.0,686.0,656.0,638.0,654.0,688.0,726.0,740.0,692.0,654.0,670.0,694.0,720.0,702.0,648.0,654.0,716.0,724.0,690.0,682.0,694.0,710.0,670.0,682.0,652.0,644.0,638.0,672.0,708.0,732.0,678.0,666.0,680.0,690.0,682.0,666.0,650.0,652.0,666.0,682.0,680.0,656.0,650.0,664.0,696.0,716.0,684.0,650.0,654.0,672.0,676.0,694.0,670.0,682.0,672.0,636.0,644.0,658.0,638.0,626.0,600.0,606.0,622.0,664.0,692.0,686.0,674.0,686.0,688.0,680.0,672.0,644.0,622.0,610.0,624.0,618.0,606.0,622.0,676.0,732.0,766.0,750.0,724.0,720.0,730.0,716.0,678.0,680.0,658.0,624.0,618.0,620.0,554.0,676.0,618.0,700.0,658.0,622.0,618.0,626.0,676.0,698.0,726.0,712.0,718.0,674.0,662.0,682.0,720.0,756.0,718.0,684.0,686.0,710.0,702.0,658.0,662.0,698.0,688.0,676.0,702.0,746.0,750.0,698.0,710.0,732.0,750.0,734.0,686.0,674.0,710.0,736.0,760.0,738.0,688.0,692.0,722.0,738.0,746.0,710.0,666.0,692.0,694.0,712.0,688.0,686.0,724.0,746.0,730.0,698.0,718.0,746.0,740.0,698.0,690.0,710.0,706.0,702.0,682.0,688.0,716.0,722.0,702.0,680.0,688.0,726.0,744.0,710.0,684.0,704.0,708.0,688.0,664.0,636.0,638.0,656.0,762.0,758.0,710.0,746.0,758.0,790.0,720.0,706.0,698.0,682.0,690.0,650.0,680.0,716.0,742.0,698.0,668.0,650.0,654.0,678.0,726.0,722.0,696.0,698.0,734.0,774.0,798.0,758.0,730.0,726.0,746.0,754.0,698.0,684.0,708.0,730.0,718.0,682.0,690.0,726.0,730.0,682.0,670.0,672.0,632.0,658.0,650.0,698.0,780.0,820.0,736.0,758.0,818.0,792.0,730.0,710.0,694.0,672.0,648.0,654.0,698.0,732.0,720.0,672.0,646.0,662.0,644.0,658.0,662.0,690.0,670.0,680.0,666.0,668.0,648.0,634.0,636.0,654.0,668.0,684.0,692.0,686.0,662.0,644.0,630.0,636.0,668.0,652.0,662.0,668.0,654.0,640.0,624.0,616.0,624.0,642.0,654.0,684.0,660.0,626.0,664.0,652.0,676.0,,,,,,,,,,,,,,,,,,,,,,,,,,,,,,,,,,,,,,,,,,,,,,,,,,,,,,,,,,,,,,,,,,,,,,,,,,,,,,,,,,,,,,,,,,,,,,,,,,,,,,,,,,,,,,,,,,,,,,,,,,,,,,,,,,,,,,,,,,,,,,,,,,,,,,,,,,,,,,,,,,,,,,,,,,,,,,,,,,,,,,,,,,,,,,,,,,,,,,,,,,,,,,,,,,,,,
sub_2,normal,656.0,640.0,648.0,622.0,628.0,644.0,648.0,698.0,772.0,790.0,720.0,702.0,706.0,698.0,690.0,666.0,630.0,624.0,654.0,656.0,646.0,644.0,640.0,654.0,692.0,704.0,664.0,650.0,662.0,690.0,634.0,636.0,642.0,688.0,732.0,744.0,706.0,662.0,614.0,612.0,618.0,658.0,678.0,658.0,714.0,782.0,796.0,758.0,682.0,656.0,658.0,632.0,610.0,634.0,626.0,612.0,632.0,644.0,628.0,632.0,674.0,662.0,656.0,686.0,682.0,650.0,654.0,670.0,652.0,630.0,642.0,666.0,658.0,664.0,728.0,716.0,694.0,720.0,708.0,688.0,660.0,666.0,676.0,670.0,674.0,740.0,746.0,700.0,744.0,774.0,766.0,708.0,754.0,712.0,692.0,694.0,752.0,718.0,770.0,772.0,736.0,742.0,702.0,654.0,646.0,632.0,622.0,602.0,598.0,602.0,638.0,720.0,698.0,754.0,784.0,794.0,748.0,732.0,692.0,642.0,610.0,608.0,604.0,598.0,612.0,640.0,664.0,678.0,656.0,648.0,632.0,636.0,666.0,706.0,672.0,656.0,680.0,708.0,696.0,660.0,648.0,666.0,700.0,728.0,734.0,658.0,642.0,660.0,656.0,626.0,614.0,646.0,650.0,678.0,706.0,722.0,724.0,692.0,642.0,634.0,650.0,646.0,644.0,666.0,658.0,710.0,736.0,688.0,746.0,768.0,744.0,728.0,720.0,706.0,668.0,624.0,630.0,620.0,618.0,662.0,702.0,696.0,706.0,760.0,772.0,712.0,756.0,776.0,722.0,658.0,656.0,674.0,654.0,648.0,672.0,696.0,678.0,692.0,714.0,688.0,694.0,686.0,724.0,710.0,636.0,638.0,632.0,630.0,612.0,626.0,668.0,722.0,676.0,664.0,698.0,654.0,636.0,614.0,592.0,606.0,622.0,634.0,656.0,696.0,722.0,734.0,728.0,712.0,652.0,644.0,656.0,698.0,692.0,712.0,672.0,654.0,678.0,682.0,706.0,666.0,648.0,658.0,682.0,676.0,656.0,658.0,694.0,702.0,684.0,664.0,670.0,718.0,728.0,726.0,664.0,676.0,728.0,684.0,650.0,672.0,692.0,678.0,646.0,630.0,644.0,662.0,630.0,622.0,644.0,706.0,712.0,648.0,692.0,690.0,672.0,650.0,638.0,616.0,614.0,632.0,634.0,648.0,710.0,756.0,746.0,682.0,652.0,674.0,682.0,686.0,722.0,672.0,662.0,660.0,668.0,648.0,632.0,694.0,716.0,718.0,710.0,728.0,752.0,728.0,666.0,648.0,640.0,614.0,608.0,622.0,652.0,680.0,682.0,700.0,664.0,648.0,670.0,676.0,688.0,668.0,628.0,626.0,634.0,612.0,630.0,670.0,682.0,666.0,694.0,714.0,676.0,660.0,678.0,652.0,674.0,692.0,656.0,666.0,694.0,700.0,664.0,672.0,688.0,690.0,646.0,640.0,662.0,650.0,658.0,678.0,652.0,658.0,706.0,704.0,644.0,640.0,656.0,686.0,628.0,626.0,680.0,658.0,636.0,664.0,652.0,682.0,662.0,634.0,666.0,662.0,668.0,640.0,644.0,684.0,710.0,694.0,636.0,622.0,630.0,628.0,612.0,624.0,670.0,684.0,654.0,678.0,692.0,664.0,680.0,708.0,670.0,648.0,662.0,688.0,652.0,634.0,686.0,656.0,652.0,640.0,680.0,656.0,668.0,690.0,686.0,716.0,692.0,656.0,612.0,606.0,612.0,640.0,690.0,704.0,710.0,742.0,760.0,774.0,702.0,664.0,674.0,662.0,628.0,622.0,624.0,632.0,666.0,682.0,658.0,678.0,702.0,710.0,658.0,680.0,674.0,694.0,670.0,684.0,712.0,648.0,684.0,666.0,680.0,684.0,668.0,676.0,660.0,618.0,,,,,,,,,,,,,,,,,,,,,,,,,,,,,,,,,,,,,,,,,,,,,,,,,,,,,,,,,,,,,,,,,,,,,,,,,,,,,,,,,,,,,,,,,,,,,,,,,,,,,,,,,,,,,,,,,,,,,,,,,,,,,,,,,,,,,,,,,,,,,,,,,,,,,,,,,,,,,,,,,,,,,,,,,,,,,,,,,,,,,,,,,,,,,,,,,,,,,,,,,,,,,,,,,,,,,,,,,,,,,,,,,,,,,,,,,,
sub_3,normal,572.0,564.0,550.0,526.0,524.0,510.0,502.0,496.0,502.0,520.0,564.0,596.0,586.0,576.0,626.0,644.0,608.0,584.0,582.0,588.0,560.0,554.0,572.0,558.0,550.0,560.0,626.0,660.0,640.0,630.0,654.0,668.0,566.0,590.0,598.0,626.0,560.0,552.0,542.0,532.0,526.0,546.0,630.0,716.0,690.0,682.0,664.0,630.0,592.0,572.0,576.0,546.0,550.0,576.0,578.0,580.0,556.0,574.0,634.0,590.0,554.0,558.0,570.0,590.0,548.0,526.0,538.0,546.0,550.0,554.0,590.0,578.0,580.0,594.0,602.0,570.0,556.0,560.0,566.0,540.0,520.0,532.0,548.0,562.0,612.0,616.0,622.0,598.0,586.0,624.0,616.0,578.0,560.0,576.0,568.0,558.0,548.0,564.0,548.0,534.0,530.0,540.0,524.0,526.0,536.0,590.0,626.0,602.0,612.0,620.0,606.0,576.0,578.0,582.0,560.0,546.0,544.0,532.0,508.0,510.0,530.0,586.0,602.0,614.0,646.0,658.0,596.0,626.0,620.0,584.0,566.0,578.0,586.0,564.0,568.0,564.0,546.0,542.0,546.0,564.0,548.0,516.0,518.0,532.0,544.0,546.0,570.0,556.0,550.0,526.0,510.0,540.0,552.0,540.0,538.0,530.0,514.0,528.0,522.0,524.0,512.0,540.0,576.0,648.0,638.0,654.0,630.0,604.0,596.0,622.0,586.0,562.0,550.0,552.0,534.0,524.0,544.0,568.0,564.0,552.0,572.0,570.0,560.0,552.0,556.0,566.0,544.0,540.0,538.0,532.0,530.0,540.0,588.0,732.0,668.0,616.0,634.0,648.0,596.0,566.0,598.0,582.0,570.0,558.0,576.0,570.0,546.0,548.0,552.0,566.0,556.0,610.0,690.0,714.0,646.0,624.0,614.0,618.0,582.0,650.0,606.0,590.0,604.0,612.0,606.0,598.0,582.0,564.0,532.0,508.0,514.0,526.0,606.0,602.0,586.0,636.0,640.0,584.0,602.0,610.0,598.0,578.0,572.0,560.0,542.0,554.0,538.0,528.0,526.0,570.0,586.0,566.0,608.0,618.0,582.0,570.0,584.0,560.0,548.0,526.0,530.0,504.0,492.0,502.0,508.0,514.0,492.0,514.0,506.0,520.0,514.0,504.0,510.0,512.0,506.0,498.0,494.0,490.0,500.0,504.0,522.0,528.0,510.0,516.0,526.0,520.0,494.0,484.0,498.0,518.0,530.0,532.0,528.0,556.0,562.0,534.0,538.0,522.0,508.0,522.0,524.0,514.0,494.0,512.0,544.0,554.0,594.0,620.0,602.0,564.0,576.0,542.0,516.0,510.0,544.0,556.0,540.0,532.0,540.0,536.0,544.0,532.0,518.0,530.0,532.0,518.0,532.0,542.0,606.0,608.0,576.0,594.0,586.0,572.0,558.0,564.0,560.0,548.0,510.0,516.0,522.0,534.0,528.0,520.0,558.0,616.0,626.0,594.0,568.0,576.0,556.0,522.0,538.0,548.0,550.0,524.0,532.0,540.0,526.0,530.0,540.0,554.0,572.0,566.0,542.0,556.0,544.0,542.0,550.0,562.0,568.0,566.0,564.0,566.0,582.0,562.0,566.0,536.0,552.0,558.0,540.0,520.0,522.0,512.0,518.0,512.0,522.0,556.0,614.0,600.0,572.0,592.0,594.0,566.0,554.0,552.0,534.0,546.0,520.0,524.0,556.0,488.0,512.0,452.0,514.0,580.0,474.0,568.0,534.0,524.0,516.0,532.0,508.0,518.0,426.0,1110.0,668.0,400.0,576.0,590.0,664.0,734.0,654.0,570.0,664.0,528.0,558.0,520.0,1062.0,638.0,446.0,630.0,526.0,560.0,1082.0,650.0,416.0,514.0,540.0,708.0,798.0,734.0,694.0,638.0,598.0,596.0,562.0,546.0,570.0,572.0,566.0,560.0,606.0,630.0,640.0,642.0,678.0,702.0,724.0,716.0,664.0,666.0,674.0,680.0,666.0,672.0,674.0,706.0,700.0,678.0,706.0,708.0,642.0,620.0,628.0,640.0,674.0,602.0,584.0,562.0,586.0,632.0,602.0,600.0,608.0,592.0,578.0,594.0,588.0,578.0,590.0,562.0,576.0,558.0,572.0,622.0,630.0,576.0,532.0,562.0,526.0,538.0,546.0,556.0,530.0,544.0,552.0,526.0,584.0,548.0,,,,,,,,,,,,,,,,,,,,,,,,,,,,,,,,,,,,,,,,,,,,,,,,,,,,,,,,,,,,,,,,,,,,,,,,,,,,,,,,,,,,,,,,,,,,,,,,,,,,,,,,,,,,,,,,,,,,,,,,,,,,,,,,,,,,,,,,,,,,,,,,,,,,,,,,,,,,,,,,,,,,,,,,,,,,
sub_4,normal,298.0,538.0,322.0,532.0,874.0,850.0,824.0,854.0,858.0,866.0,830.0,822.0,832.0,834.0,806.0,814.0,834.0,808.0,810.0,832.0,840.0,810.0,808.0,818.0,800.0,784.0,796.0,802.0,788.0,802.0,756.0,740.0,734.0,750.0,774.0,776.0,796.0,818.0,810.0,852.0,872.0,820.0,844.0,848.0,802.0,818.0,824.0,786.0,802.0,812.0,782.0,796.0,818.0,798.0,800.0,816.0,830.0,802.0,836.0,842.0,802.0,828.0,824.0,802.0,812.0,824.0,802.0,824.0,842.0,830.0,826.0,820.0,796.0,818.0,846.0,844.0,828.0,844.0,848.0,822.0,834.0,844.0,832.0,800.0,812.0,838.0,848.0,824.0,818.0,840.0,862.0,866.0,826.0,796.0,822.0,838.0,834.0,820.0,824.0,840.0,822.0,824.0,834.0,810.0,830.0,834.0,766.0,736.0,708.0,704.0,708.0,680.0,648.0,668.0,684.0,732.0,748.0,786.0,808.0,818.0,790.0,798.0,766.0,774.0,790.0,800.0,814.0,822.0,828.0,824.0,826.0,782.0,766.0,740.0,750.0,766.0,772.0,788.0,818.0,816.0,778.0,796.0,814.0,804.0,776.0,800.0,812.0,782.0,760.0,756.0,792.0,756.0,708.0,736.0,700.0,706.0,756.0,768.0,778.0,790.0,782.0,796.0,822.0,816.0,812.0,810.0,782.0,762.0,752.0,736.0,798.0,854.0,846.0,834.0,836.0,860.0,874.0,868.0,854.0,848.0,852.0,854.0,860.0,858.0,852.0,832.0,820.0,816.0,802.0,794.0,786.0,776.0,778.0,760.0,754.0,766.0,776.0,752.0,760.0,780.0,784.0,774.0,790.0,794.0,768.0,766.0,772.0,774.0,740.0,750.0,762.0,760.0,752.0,774.0,804.0,792.0,788.0,812.0,784.0,796.0,794.0,766.0,768.0,788.0,812.0,810.0,828.0,838.0,834.0,802.0,820.0,822.0,806.0,772.0,774.0,788.0,796.0,812.0,788.0,796.0,802.0,804.0,786.0,804.0,810.0,784.0,800.0,814.0,792.0,786.0,794.0,792.0,786.0,796.0,778.0,772.0,794.0,762.0,770.0,788.0,804.0,794.0,776.0,794.0,814.0,800.0,786.0,802.0,812.0,784.0,794.0,802.0,776.0,774.0,784.0,786.0,764.0,784.0,802.0,780.0,786.0,794.0,776.0,782.0,794.0,766.0,776.0,784.0,778.0,766.0,786.0,790.0,762.0,776.0,782.0,754.0,756.0,766.0,744.0,750.0,762.0,780.0,784.0,776.0,774.0,746.0,676.0,708.0,736.0,724.0,718.0,738.0,758.0,768.0,754.0,762.0,776.0,782.0,762.0,778.0,780.0,768.0,754.0,762.0,768.0,756.0,760.0,766.0,744.0,756.0,782.0,784.0,774.0,782.0,808.0,812.0,790.0,806.0,810.0,796.0,792.0,802.0,788.0,786.0,768.0,778.0,782.0,780.0,762.0,784.0,802.0,794.0,796.0,794.0,798.0,760.0,768.0,772.0,784.0,768.0,780.0,808.0,818.0,796.0,812.0,830.0,828.0,786.0,794.0,802.0,814.0,802.0,790.0,808.0,822.0,832.0,802.0,822.0,844.0,856.0,824.0,844.0,846.0,854.0,826.0,812.0,816.0,824.0,810.0,786.0,798.0,808.0,802.0,764.0,756.0,764.0,778.0,764.0,784.0,800.0,780.0,764.0,774.0,752.0,762.0,774.0,750.0,776.0,792.0,794.0,764.0,756.0,768.0,776.0,750.0,732.0,752.0,732.0,722.0,734.0,736.0,740.0,738.0,724.0,734.0,752.0,768.0,748.0,764.0,776.0,778.0,750.0,752.0,738.0,726.0,742.0,760.0,746.0,758.0,756.0,750.0,742.0,750.0,746.0,714.0,712.0,710.0,704.0,708.0,720.0,726.0,720.0,712.0,746.0,766.0,770.0,750.0,758.0,764.0,756.0,732.0,740.0,748.0,762.0,750.0,738.0,746.0,752.0,736.0,756.0,758.0,742.0,712.0,720.0,712.0,698.0,672.0,680.0,660.0,668.0,706.0,722.0,714.0,728.0,736.0,718.0,686.0,656.0,680.0,646.0,644.0,664.0,680.0,694.0,704.0,730.0,728.0,756.0,782.0,814.0,786.0,788.0,790.0,772.0,768.0,782.0,792.0,760.0,754.0,764.0,768.0,738.0,742.0,750.0,726.0,728.0,742.0,762.0,742.0,748.0,768.0,720.0,696.0,686.0,698.0,692.0,678.0,650.0,678.0,692.0,712.0,732.0,738.0,760.0,742.0,760.0,776.0,786.0,750.0,752.0,760.0,730.0,724.0,740.0,744.0,732.0,716.0,692.0,664.0,684.0,696.0,736.0,740.0,720.0,738.0,748.0,742.0,736.0,726.0,734.0,802.0,764.0,744.0,764.0,798.0,784.0,788.0,818.0,826.0,812.0,782.0,798.0,808.0,806.0,778.0,794.0,818.0,826.0,794.0,788.0,812.0,834.0,840.0,802.0,786.0,810.0,806.0,810.0,806.0,776.0,780.0,800.0,826.0,844.0,860.0,838.0,846.0,866.0,852.0,826.0,842.0,856.0,854.0,832.0,848.0,854.0,864.0,842.0,844.0,866.0,868.0,840.0,848.0,856.0,864.0,848.0,858.0,868.0,876.0,844.0,852.0,862.0,840.0,860.0,876.0,850.0,838.0,858.0,828.0,818.0,842.0,860.0,836.0,854.0,868.0,828.0,834.0,862.0,828.0,820.0,840.0,812.0,776.0,752.0,750.0,740.0,746.0,758.0,772.0,790.0,808.0,796.0,810.0,840.0,846.0,806.0,778.0,784.0,800.0,770.0,750.0,722.0,714.0,730.0,718.0,724.0,764.0,818.0,872.0,916.0,896.0,854.0,806.0,812.0,814.0,790.0,740.0,716.0,724.0,720.0,710.0,708.0
sub_5,normal,630.0,616.0,598.0,638.0,626.0,616.0,594.0,620.0,626.0,646.0,626.0,630.0,644.0,618.0,582.0,620.0,616.0,650.0,612.0,604.0,654.0,612.0,614.0,624.0,632.0,614.0,602.0,600.0,608.0,578.0,586.0,578.0,576.0,620.0,630.0,616.0,634.0,624.0,618.0,600.0,588.0,608.0,618.0,568.0,608.0,636.0,668.0,634.0,666.0,658.0,648.0,622.0,648.0,630.0,620.0,634.0,646.0,588.0,620.0,646.0,588.0,616.0,614.0,638.0,624.0,596.0,604.0,572.0,610.0,580.0,594.0,608.0,602.0,594.0,612.0,642.0,602.0,598.0,638.0,630.0,642.0,630.0,652.0,626.0,624.0,630.0,636.0,614.0,602.0,600.0,590.0,576.0,588.0,586.0,574.0,578.0,586.0,594.0,588.0,614.0,620.0,588.0,638.0,606.0,620.0,624.0,596.0,590.0,604.0,606.0,594.0,616.0,574.0,596.0,570.0,560.0,592.0,588.0,636.0,506.0,574.0,582.0,590.0,588.0,614.0,620.0,614.0,600.0,610.0,650.0,624.0,592.0,636.0,648.0,660.0,636.0,642.0,618.0,644.0,660.0,662.0,656.0,640.0,666.0,664.0,660.0,640.0,660.0,622.0,620.0,638.0,602.0,610.0,632.0,640.0,656.0,624.0,642.0,636.0,644.0,622.0,630.0,634.0,648.0,598.0,606.0,614.0,612.0,618.0,634.0,666.0,624.0,638.0,648.0,634.0,598.0,632.0,644.0,634.0,604.0,616.0,636.0,600.0,612.0,624.0,604.0,600.0,596.0,600.0,592.0,608.0,592.0,556.0,602.0,578.0,566.0,568.0,566.0,568.0,570.0,574.0,580.0,586.0,606.0,598.0,630.0,602.0,592.0,626.0,646.0,582.0,588.0,592.0,604.0,584.0,590.0,550.0,586.0,552.0,588.0,578.0,554.0,588.0,630.0,686.0,684.0,712.0,750.0,720.0,710.0,716.0,700.0,698.0,654.0,616.0,640.0,576.0,554.0,576.0,584.0,564.0,578.0,604.0,660.0,726.0,738.0,714.0,684.0,686.0,664.0,626.0,622.0,616.0,612.0,602.0,638.0,644.0,628.0,632.0,642.0,636.0,672.0,676.0,654.0,640.0,688.0,604.0,666.0,654.0,632.0,624.0,626.0,592.0,604.0,638.0,626.0,610.0,606.0,630.0,604.0,580.0,606.0,602.0,592.0,588.0,580.0,620.0,618.0,596.0,634.0,602.0,660.0,626.0,660.0,654.0,690.0,638.0,646.0,634.0,626.0,600.0,642.0,638.0,612.0,568.0,656.0,616.0,584.0,620.0,598.0,638.0,646.0,622.0,652.0,704.0,664.0,636.0,662.0,650.0,646.0,634.0,590.0,620.0,624.0,586.0,594.0,610.0,632.0,612.0,646.0,626.0,622.0,628.0,644.0,604.0,626.0,618.0,604.0,614.0,618.0,644.0,1208.0,724.0,512.0,594.0,598.0,586.0,610.0,572.0,596.0,606.0,608.0,590.0,606.0,602.0,594.0,584.0,588.0,546.0,620.0,616.0,566.0,590.0,582.0,576.0,552.0,594.0,584.0,588.0,604.0,606.0,590.0,620.0,596.0,618.0,616.0,606.0,596.0,610.0,594.0,610.0,652.0,664.0,692.0,646.0,700.0,650.0,636.0,658.0,626.0,614.0,626.0,646.0,656.0,674.0,692.0,742.0,634.0,680.0,678.0,650.0,652.0,654.0,640.0,632.0,628.0,604.0,618.0,624.0,572.0,596.0,618.0,612.0,592.0,628.0,610.0,600.0,590.0,642.0,636.0,648.0,626.0,628.0,606.0,588.0,616.0,594.0,600.0,596.0,584.0,606.0,590.0,602.0,604.0,586.0,614.0,590.0,608.0,592.0,568.0,588.0,578.0,568.0,584.0,578.0,626.0,634.0,658.0,624.0,620.0,636.0,586.0,606.0,594.0,740.0,456.0,610.0,584.0,598.0,602.0,630.0,530.0,612.0,592.0,578.0,582.0,616.0,642.0,738.0,702.0,698.0,676.0,652.0,660.0,648.0,620.0,630.0,614.0,594.0,,,,,,,,,,,,,,,,,,,,,,,,,,,,,,,,,,,,,,,,,,,,,,,,,,,,,,,,,,,,,,,,,,,,,,,,,,,,,,,,,,,,,,,,,,,,,,,,,,,,,,,,,,,,,,,,,,,,,,,,,,,,,,,,,,,,,,,,,,,,,,,,,,,,,,,,,,,,,,,,,,,,,,,,,,,,,,,,,,,,,,,,,,,,,,,,,,,,,,,,,,,
sub_6,normal,618.0,638.0,2030.0,1330.0,1432.0,1388.0,1302.0,782.0,698.0,802.0,664.0,740.0,706.0,638.0,678.0,632.0,720.0,866.0,608.0,494.0,642.0,720.0,586.0,744.0,640.0,1878.0,1332.0,874.0,916.0,764.0,790.0,900.0,890.0,830.0,694.0,770.0,754.0,800.0,788.0,704.0,730.0,818.0,878.0,860.0,776.0,842.0,888.0,890.0,808.0,736.0,830.0,884.0,860.0,742.0,740.0,858.0,898.0,814.0,698.0,730.0,824.0,956.0,574.0,344.0,520.0,684.0,410.0,362.0,600.0,660.0,432.0,804.0,658.0,698.0,664.0,672.0,716.0,746.0,790.0,708.0,696.0,702.0,772.0,766.0,706.0,680.0,754.0,816.0,864.0,792.0,714.0,774.0,464.0,410.0,610.0,754.0,730.0,756.0,778.0,676.0,406.0,338.0,252.0,490.0,698.0,696.0,524.0,858.0,696.0,738.0,746.0,680.0,712.0,766.0,820.0,836.0,744.0,708.0,754.0,798.0,822.0,742.0,744.0,790.0,820.0,778.0,708.0,718.0,802.0,780.0,674.0,692.0,698.0,708.0,722.0,668.0,626.0,698.0,594.0,732.0,752.0,700.0,686.0,748.0,814.0,816.0,738.0,674.0,700.0,760.0,790.0,768.0,692.0,748.0,858.0,778.0,666.0,732.0,808.0,790.0,732.0,668.0,750.0,752.0,742.0,694.0,676.0,722.0,734.0,766.0,698.0,690.0,752.0,774.0,732.0,682.0,706.0,736.0,804.0,762.0,720.0,754.0,786.0,836.0,776.0,702.0,726.0,762.0,792.0,814.0,734.0,692.0,738.0,790.0,822.0,750.0,706.0,508.0,1062.0,776.0,698.0,678.0,704.0,770.0,756.0,672.0,686.0,754.0,798.0,810.0,700.0,702.0,746.0,782.0,802.0,730.0,710.0,792.0,850.0,856.0,780.0,734.0,780.0,820.0,842.0,742.0,728.0,780.0,852.0,826.0,726.0,742.0,808.0,832.0,768.0,694.0,764.0,780.0,826.0,726.0,698.0,730.0,792.0,716.0,706.0,778.0,838.0,1472.0,884.0,658.0,776.0,724.0,682.0,702.0,754.0,784.0,732.0,698.0,764.0,830.0,806.0,736.0,694.0,758.0,778.0,736.0,682.0,662.0,736.0,748.0,738.0,678.0,716.0,754.0,790.0,738.0,670.0,726.0,740.0,742.0,678.0,654.0,702.0,712.0,736.0,694.0,664.0,696.0,754.0,740.0,678.0,682.0,410.0,1098.0,696.0,658.0,734.0,754.0,794.0,708.0,694.0,706.0,760.0,732.0,652.0,744.0,748.0,688.0,664.0,640.0,616.0,678.0,746.0,736.0,656.0,650.0,702.0,748.0,734.0,674.0,684.0,734.0,760.0,792.0,732.0,668.0,722.0,800.0,854.0,774.0,702.0,756.0,814.0,852.0,768.0,694.0,730.0,766.0,822.0,760.0,674.0,742.0,868.0,824.0,742.0,702.0,786.0,868.0,778.0,734.0,720.0,748.0,768.0,756.0,692.0,684.0,760.0,806.0,826.0,712.0,718.0,808.0,848.0,804.0,714.0,680.0,852.0,850.0,846.0,716.0,732.0,774.0,806.0,776.0,680.0,1246.0,748.0,822.0,854.0,892.0,808.0,794.0,828.0,840.0,912.0,740.0,794.0,592.0,810.0,702.0,748.0,,,,,,,,,,,,,,,,,,,,,,,,,,,,,,,,,,,,,,,,,,,,,,,,,,,,,,,,,,,,,,,,,,,,,,,,,,,,,,,,,,,,,,,,,,,,,,,,,,,,,,,,,,,,,,,,,,,,,,,,,,,,,,,,,,,,,,,,,,,,,,,,,,,,,,,,,,,,,,,,,,,,,,,,,,,,,,,,,,,,,,,,,,,,,,,,,,,,,,,,,,,,,,,,,,,,,,,,,,,,,,,,,,,,,,,,,,,,,,,,,,,,,,,,,,,,,,,,,,,,,,,,,,,,,,,,,,,,,,,,,,,,,,,,,,,
sub_7,normal,632.0,670.0,724.0,700.0,740.0,760.0,730.0,700.0,654.0,616.0,608.0,582.0,562.0,560.0,576.0,574.0,620.0,724.0,814.0,842.0,848.0,774.0,714.0,676.0,654.0,640.0,622.0,574.0,592.0,618.0,938.0,978.0,948.0,776.0,684.0,708.0,720.0,688.0,804.0,774.0,770.0,914.0,966.0,882.0,712.0,646.0,700.0,886.0,952.0,888.0,734.0,744.0,776.0,704.0,776.0,904.0,802.0,762.0,780.0,684.0,650.0,702.0,850.0,870.0,706.0,670.0,728.0,924.0,904.0,714.0,648.0,678.0,802.0,880.0,758.0,802.0,892.0,846.0,806.0,742.0,648.0,590.0,598.0,642.0,806.0,774.0,690.0,644.0,614.0,646.0,814.0,866.0,760.0,690.0,686.0,734.0,764.0,714.0,634.0,622.0,634.0,644.0,660.0,650.0,724.0,866.0,906.0,876.0,726.0,660.0,658.0,676.0,708.0,704.0,728.0,742.0,734.0,672.0,620.0,618.0,624.0,618.0,636.0,618.0,600.0,626.0,718.0,768.0,784.0,700.0,620.0,588.0,614.0,676.0,880.0,858.0,694.0,670.0,750.0,914.0,792.0,684.0,716.0,842.0,760.0,690.0,644.0,616.0,646.0,802.0,858.0,700.0,646.0,696.0,828.0,852.0,710.0,658.0,682.0,702.0,700.0,676.0,710.0,786.0,798.0,728.0,650.0,626.0,624.0,614.0,588.0,540.0,544.0,596.0,774.0,888.0,904.0,780.0,706.0,764.0,928.0,962.0,876.0,742.0,714.0,764.0,820.0,832.0,722.0,666.0,676.0,678.0,692.0,670.0,640.0,638.0,672.0,692.0,708.0,730.0,710.0,650.0,648.0,688.0,728.0,734.0,668.0,618.0,630.0,678.0,790.0,864.0,744.0,784.0,780.0,788.0,710.0,706.0,714.0,710.0,674.0,632.0,602.0,616.0,654.0,724.0,726.0,672.0,710.0,802.0,818.0,726.0,658.0,672.0,694.0,732.0,698.0,646.0,676.0,692.0,688.0,650.0,664.0,660.0,612.0,608.0,636.0,674.0,794.0,736.0,652.0,682.0,734.0,744.0,700.0,626.0,610.0,634.0,660.0,680.0,630.0,620.0,676.0,836.0,830.0,712.0,684.0,660.0,642.0,624.0,610.0,588.0,566.0,552.0,568.0,616.0,728.0,722.0,646.0,652.0,672.0,712.0,696.0,660.0,664.0,628.0,634.0,640.0,624.0,600.0,576.0,586.0,590.0,604.0,584.0,600.0,742.0,900.0,904.0,796.0,780.0,796.0,766.0,668.0,604.0,614.0,646.0,664.0,660.0,704.0,810.0,824.0,778.0,676.0,608.0,598.0,658.0,770.0,714.0,654.0,712.0,684.0,718.0,746.0,668.0,590.0,596.0,572.0,570.0,580.0,624.0,682.0,680.0,674.0,710.0,704.0,686.0,680.0,654.0,612.0,606.0,622.0,626.0,616.0,590.0,580.0,570.0,546.0,540.0,550.0,584.0,648.0,698.0,706.0,678.0,658.0,706.0,704.0,684.0,662.0,648.0,644.0,624.0,644.0,666.0,682.0,686.0,656.0,638.0,666.0,702.0,740.0,782.0,796.0,784.0,716.0,644.0,648.0,710.0,778.0,726.0,664.0,680.0,664.0,638.0,644.0,648.0,614.0,594.0,610.0,628.0,640.0,650.0,828.0,936.0,798.0,682.0,654.0,696.0,902.0,1056.0,822.0,668.0,680.0,650.0,698.0,946.0,934.0,832.0,796.0,848.0,1030.0,1000.0,764.0,714.0,852.0,968.0,870.0,754.0,834.0,972.0,860.0,724.0,762.0,958.0,864.0,788.0,802.0,800.0,,,,,,,,,,,,,,,,,,,,,,,,,,,,,,,,,,,,,,,,,,,,,,,,,,,,,,,,,,,,,,,,,,,,,,,,,,,,,,,,,,,,,,,,,,,,,,,,,,,,,,,,,,,,,,,,,,,,,,,,,,,,,,,,,,,,,,,,,,,,,,,,,,,,,,,,,,,,,,,,,,,,,,,,,,,,,,,,,,,,,,,,,,,,,,,,,,,,,,,,,,,,,,,,,,,,,,,,,,,,,,,,,,,,,,,,,,,,,,,,,,,,,,,,,,,,,
sub_8,normal,330.0,624.0,740.0,772.0,690.0,728.0,828.0,810.0,774.0,886.0,928.0,792.0,688.0,690.0,788.0,832.0,754.0,804.0,1024.0,1060.0,948.0,920.0,946.0,948.0,846.0,852.0,966.0,980.0,898.0,924.0,1022.0,958.0,870.0,968.0,958.0,874.0,918.0,976.0,874.0,876.0,890.0,962.0,862.0,864.0,920.0,902.0,826.0,840.0,910.0,926.0,862.0,866.0,926.0,858.0,796.0,824.0,836.0,812.0,892.0,958.0,962.0,918.0,788.0,760.0,764.0,804.0,778.0,788.0,818.0,892.0,834.0,774.0,800.0,816.0,824.0,724.0,760.0,790.0,838.0,784.0,772.0,778.0,784.0,734.0,726.0,784.0,792.0,726.0,762.0,836.0,856.0,782.0,752.0,778.0,792.0,752.0,738.0,806.0,864.0,766.0,774.0,794.0,840.0,762.0,726.0,730.0,722.0,684.0,740.0,902.0,892.0,842.0,800.0,850.0,906.0,922.0,854.0,810.0,838.0,852.0,814.0,766.0,828.0,886.0,882.0,860.0,826.0,852.0,884.0,842.0,764.0,754.0,806.0,904.0,832.0,750.0,770.0,858.0,824.0,756.0,776.0,856.0,868.0,808.0,826.0,818.0,810.0,758.0,704.0,772.0,780.0,806.0,784.0,834.0,912.0,970.0,946.0,902.0,840.0,742.0,738.0,834.0,864.0,838.0,804.0,822.0,806.0,750.0,692.0,696.0,780.0,902.0,822.0,772.0,792.0,824.0,770.0,704.0,718.0,740.0,710.0,682.0,696.0,714.0,780.0,776.0,716.0,744.0,804.0,770.0,716.0,684.0,706.0,720.0,760.0,722.0,668.0,692.0,716.0,700.0,702.0,676.0,738.0,724.0,694.0,672.0,654.0,674.0,742.0,754.0,740.0,678.0,650.0,694.0,770.0,772.0,702.0,684.0,754.0,850.0,804.0,728.0,730.0,806.0,778.0,780.0,702.0,700.0,742.0,752.0,746.0,694.0,686.0,704.0,810.0,792.0,728.0,738.0,800.0,786.0,780.0,734.0,756.0,778.0,788.0,762.0,702.0,664.0,652.0,654.0,656.0,834.0,810.0,748.0,698.0,748.0,850.0,808.0,726.0,684.0,692.0,732.0,756.0,696.0,678.0,718.0,768.0,748.0,730.0,790.0,788.0,806.0,754.0,806.0,842.0,850.0,762.0,772.0,782.0,788.0,720.0,686.0,732.0,830.0,892.0,886.0,824.0,866.0,884.0,860.0,792.0,726.0,740.0,780.0,756.0,710.0,726.0,774.0,782.0,788.0,724.0,692.0,722.0,776.0,772.0,734.0,724.0,760.0,794.0,800.0,752.0,770.0,766.0,708.0,668.0,674.0,706.0,710.0,696.0,680.0,714.0,798.0,846.0,828.0,826.0,740.0,684.0,648.0,660.0,704.0,732.0,700.0,670.0,702.0,786.0,788.0,722.0,680.0,670.0,678.0,682.0,654.0,636.0,626.0,628.0,698.0,772.0,746.0,686.0,676.0,688.0,676.0,654.0,668.0,768.0,772.0,718.0,698.0,706.0,746.0,764.0,704.0,680.0,700.0,758.0,800.0,758.0,708.0,732.0,754.0,792.0,738.0,692.0,712.0,806.0,886.0,814.0,742.0,744.0,766.0,830.0,776.0,712.0,748.0,820.0,792.0,776.0,728.0,734.0,744.0,746.0,762.0,732.0,796.0,842.0,836.0,754.0,734.0,766.0,690.0,710.0,728.0,764.0,716.0,674.0,758.0,818.0,758.0,712.0,742.0,752.0,754.0,700.0,,,,,,,,,,,,,,,,,,,,,,,,,,,,,,,,,,,,,,,,,,,,,,,,,,,,,,,,,,,,,,,,,,,,,,,,,,,,,,,,,,,,,,,,,,,,,,,,,,,,,,,,,,,,,,,,,,,,,,,,,,,,,,,,,,,,,,,,,,,,,,,,,,,,,,,,,,,,,,,,,,,,,,,,,,,,,,,,,,,,,,,,,,,,,,,,,,,,,,,,,,,,,,,,,,,,,,,,,,,,,,,,,,,,,,,,,,,,,,,,,,,,,,,,,,,,,,,,,,,,,,,,,,,,,
sub_9,normal,426.0,774.0,748.0,666.0,664.0,668.0,674.0,852.0,808.0,810.0,754.0,666.0,676.0,718.0,694.0,658.0,684.0,860.0,806.0,730.0,694.0,688.0,650.0,622.0,656.0,768.0,792.0,682.0,640.0,690.0,804.0,812.0,716.0,696.0,704.0,734.0,772.0,708.0,712.0,732.0,772.0,822.0,714.0,666.0,670.0,792.0,764.0,710.0,648.0,654.0,694.0,818.0,790.0,712.0,648.0,622.0,594.0,630.0,632.0,656.0,710.0,976.0,830.0,696.0,650.0,654.0,718.0,750.0,686.0,652.0,672.0,942.0,828.0,772.0,712.0,654.0,678.0,788.0,844.0,818.0,784.0,698.0,702.0,794.0,806.0,734.0,654.0,640.0,666.0,744.0,692.0,624.0,628.0,658.0,868.0,770.0,650.0,614.0,630.0,650.0,698.0,650.0,612.0,658.0,678.0,680.0,630.0,604.0,630.0,654.0,666.0,644.0,610.0,638.0,654.0,660.0,634.0,608.0,640.0,652.0,666.0,648.0,612.0,592.0,620.0,682.0,732.0,716.0,638.0,630.0,662.0,674.0,668.0,614.0,592.0,606.0,640.0,810.0,828.0,702.0,634.0,648.0,686.0,692.0,644.0,592.0,604.0,618.0,672.0,678.0,652.0,620.0,650.0,686.0,684.0,640.0,590.0,602.0,628.0,664.0,618.0,636.0,720.0,746.0,660.0,582.0,350.0,328.0,630.0,634.0,610.0,572.0,576.0,584.0,598.0,618.0,634.0,624.0,598.0,606.0,630.0,634.0,616.0,626.0,668.0,674.0,624.0,654.0,682.0,752.0,740.0,668.0,672.0,740.0,796.0,762.0,696.0,624.0,620.0,716.0,712.0,650.0,638.0,642.0,656.0,662.0,610.0,594.0,624.0,644.0,696.0,814.0,806.0,708.0,640.0,634.0,640.0,668.0,656.0,618.0,622.0,678.0,864.0,818.0,706.0,626.0,622.0,628.0,664.0,656.0,632.0,614.0,648.0,720.0,732.0,672.0,622.0,648.0,674.0,660.0,622.0,600.0,618.0,622.0,642.0,626.0,594.0,606.0,648.0,712.0,758.0,724.0,646.0,666.0,732.0,716.0,684.0,652.0,604.0,588.0,600.0,642.0,698.0,682.0,634.0,676.0,754.0,796.0,718.0,636.0,654.0,706.0,644.0,616.0,644.0,660.0,676.0,672.0,626.0,608.0,624.0,664.0,756.0,784.0,692.0,654.0,644.0,650.0,676.0,622.0,446.0,268.0,252.0,628.0,522.0,578.0,576.0,570.0,564.0,568.0,580.0,586.0,604.0,622.0,642.0,622.0,636.0,638.0,680.0,690.0,670.0,646.0,612.0,604.0,644.0,680.0,704.0,650.0,604.0,630.0,666.0,672.0,636.0,600.0,624.0,680.0,718.0,706.0,676.0,640.0,608.0,624.0,646.0,678.0,702.0,718.0,690.0,644.0,654.0,652.0,650.0,670.0,702.0,664.0,618.0,634.0,664.0,732.0,796.0,688.0,630.0,648.0,702.0,754.0,686.0,644.0,662.0,702.0,736.0,702.0,686.0,728.0,772.0,774.0,726.0,672.0,668.0,652.0,634.0,664.0,674.0,652.0,644.0,678.0,662.0,654.0,692.0,680.0,640.0,670.0,668.0,694.0,710.0,666.0,698.0,732.0,762.0,736.0,704.0,696.0,712.0,676.0,622.0,606.0,642.0,746.0,782.0,756.0,692.0,638.0,640.0,646.0,696.0,692.0,648.0,632.0,640.0,674.0,720.0,742.0,734.0,694.0,634.0,626.0,632.0,664.0,694.0,704.0,668.0,626.0,628.0,636.0,658.0,682.0,644.0,626.0,668.0,690.0,736.0,726.0,668.0,610.0,640.0,660.0,674.0,678.0,652.0,608.0,630.0,714.0,782.0,736.0,650.0,638.0,656.0,684.0,658.0,612.0,614.0,644.0,646.0,,,,,,,,,,,,,,,,,,,,,,,,,,,,,,,,,,,,,,,,,,,,,,,,,,,,,,,,,,,,,,,,,,,,,,,,,,,,,,,,,,,,,,,,,,,,,,,,,,,,,,,,,,,,,,,,,,,,,,,,,,,,,,,,,,,,,,,,,,,,,,,,,,,,,,,,,,,,,,,,,,,,,,,,,,,,,,,,,,,,,,,,,,,,,,,,,,,,,,,,,,,,,,,,,,,,,,,,,,,,,,,,,,,,,,,
sub_10,normal,662.0,668.0,742.0,760.0,732.0,774.0,790.0,758.0,718.0,722.0,742.0,726.0,682.0,670.0,678.0,668.0,712.0,1216.0,1008.0,924.0,870.0,828.0,800.0,778.0,768.0,744.0,742.0,726.0,758.0,792.0,812.0,850.0,872.0,880.0,866.0,850.0,840.0,818.0,816.0,824.0,772.0,736.0,758.0,782.0,766.0,774.0,758.0,698.0,718.0,734.0,726.0,756.0,784.0,736.0,776.0,784.0,760.0,734.0,736.0,766.0,764.0,760.0,788.0,760.0,794.0,810.0,772.0,780.0,776.0,770.0,780.0,708.0,710.0,732.0,742.0,740.0,758.0,698.0,690.0,660.0,666.0,650.0,692.0,714.0,704.0,716.0,756.0,754.0,720.0,742.0,702.0,692.0,708.0,722.0,690.0,714.0,722.0,696.0,722.0,728.0,732.0,710.0,706.0,742.0,764.0,706.0,730.0,712.0,754.0,770.0,742.0,744.0,732.0,722.0,736.0,722.0,704.0,718.0,722.0,702.0,718.0,734.0,700.0,730.0,736.0,710.0,698.0,710.0,682.0,666.0,676.0,678.0,664.0,678.0,684.0,656.0,662.0,674.0,664.0,660.0,670.0,656.0,642.0,646.0,648.0,630.0,640.0,642.0,636.0,642.0,648.0,642.0,694.0,704.0,738.0,768.0,742.0,726.0,772.0,760.0,700.0,678.0,692.0,686.0,676.0,710.0,730.0,772.0,782.0,750.0,772.0,750.0,710.0,730.0,708.0,684.0,706.0,720.0,706.0,692.0,714.0,720.0,714.0,682.0,700.0,694.0,660.0,664.0,704.0,714.0,722.0,694.0,668.0,674.0,680.0,674.0,652.0,656.0,690.0,728.0,748.0,720.0,736.0,740.0,674.0,668.0,684.0,676.0,684.0,680.0,732.0,774.0,790.0,762.0,768.0,728.0,660.0,648.0,686.0,722.0,678.0,666.0,638.0,628.0,630.0,648.0,674.0,702.0,722.0,716.0,718.0,720.0,686.0,666.0,672.0,666.0,658.0,688.0,716.0,712.0,702.0,686.0,702.0,718.0,702.0,690.0,678.0,644.0,636.0,614.0,600.0,606.0,622.0,646.0,662.0,668.0,672.0,652.0,638.0,646.0,652.0,674.0,682.0,678.0,684.0,680.0,676.0,644.0,636.0,652.0,662.0,690.0,710.0,730.0,708.0,692.0,724.0,736.0,748.0,754.0,752.0,734.0,700.0,720.0,748.0,760.0,754.0,714.0,692.0,688.0,678.0,660.0,628.0,612.0,634.0,950.0,886.0,826.0,782.0,748.0,728.0,718.0,704.0,698.0,686.0,658.0,648.0,650.0,662.0,666.0,748.0,788.0,780.0,792.0,810.0,816.0,774.0,742.0,682.0,660.0,656.0,666.0,692.0,732.0,776.0,798.0,800.0,796.0,776.0,740.0,712.0,664.0,644.0,634.0,714.0,854.0,798.0,766.0,746.0,710.0,666.0,658.0,668.0,680.0,710.0,754.0,770.0,798.0,788.0,774.0,770.0,778.0,768.0,778.0,744.0,762.0,756.0,744.0,686.0,682.0,686.0,730.0,760.0,716.0,708.0,664.0,398.0,314.0,252.0,434.0,260.0,398.0,254.0,408.0,688.0,698.0,716.0,732.0,698.0,674.0,666.0,696.0,728.0,772.0,780.0,768.0,764.0,760.0,748.0,758.0,760.0,764.0,740.0,742.0,764.0,772.0,798.0,774.0,762.0,772.0,792.0,748.0,710.0,726.0,720.0,708.0,666.0,684.0,690.0,678.0,674.0,692.0,676.0,658.0,682.0,684.0,666.0,660.0,690.0,682.0,678.0,708.0,718.0,688.0,666.0,698.0,700.0,690.0,702.0,666.0,644.0,624.0,622.0,674.0,824.0,842.0,838.0,778.0,786.0,834.0,836.0,766.0,786.0,770.0,732.0,748.0,772.0,754.0,710.0,746.0,770.0,758.0,720.0,692.0,678.0,718.0,686.0,668.0,664.0,698.0,664.0,672.0,700.0,734.0,764.0,768.0,762.0,760.0,766.0,740.0,718.0,692.0,,,,,,,,,,,,,,,,,,,,,,,,,,,,,,,,,,,,,,,,,,,,,,,,,,,,,,,,,,,,,,,,,,,,,,,,,,,,,,,,,,,,,,,,,,,,,,,,,,,,,,,,,,,,,,,,,,,,,,,,,,,,,,,,,,,,,,,,,,,,,,,,,,,,,,,,,,,,,,,,,,,,,,,,,,,,,,,,,,,,,,,,,,,,,,,,,,,,,,,,,,,,,,,,,,
sub_11,normal,540.0,326.0,678.0,960.0,886.0,974.0,944.0,798.0,728.0,712.0,868.0,982.0,800.0,792.0,856.0,922.0,882.0,814.0,802.0,800.0,788.0,774.0,754.0,768.0,800.0,866.0,792.0,808.0,836.0,864.0,818.0,848.0,878.0,892.0,862.0,784.0,800.0,766.0,732.0,702.0,730.0,806.0,838.0,898.0,846.0,836.0,868.0,892.0,856.0,810.0,832.0,834.0,824.0,494.0,1330.0,800.0,520.0,368.0,820.0,782.0,756.0,710.0,672.0,674.0,876.0,916.0,882.0,876.0,890.0,856.0,802.0,796.0,806.0,796.0,770.0,812.0,852.0,836.0,814.0,906.0,946.0,852.0,798.0,822.0,834.0,806.0,858.0,906.0,870.0,844.0,856.0,824.0,778.0,804.0,872.0,924.0,886.0,910.0,946.0,876.0,856.0,882.0,894.0,830.0,870.0,924.0,918.0,888.0,926.0,980.0,906.0,806.0,820.0,840.0,818.0,788.0,798.0,588.0,560.0,664.0,592.0,790.0,762.0,770.0,752.0,726.0,722.0,780.0,846.0,818.0,776.0,778.0,792.0,796.0,754.0,768.0,798.0,848.0,796.0,752.0,698.0,658.0,644.0,622.0,650.0,654.0,724.0,714.0,756.0,792.0,812.0,800.0,788.0,782.0,766.0,788.0,798.0,812.0,846.0,834.0,814.0,824.0,838.0,826.0,804.0,792.0,836.0,834.0,794.0,792.0,882.0,876.0,820.0,818.0,830.0,772.0,760.0,762.0,752.0,718.0,750.0,826.0,788.0,798.0,812.0,764.0,734.0,710.0,720.0,692.0,688.0,722.0,736.0,706.0,772.0,858.0,818.0,772.0,762.0,792.0,820.0,796.0,800.0,802.0,798.0,758.0,792.0,816.0,778.0,794.0,814.0,822.0,768.0,758.0,764.0,770.0,742.0,738.0,748.0,756.0,734.0,716.0,728.0,696.0,676.0,674.0,690.0,698.0,700.0,724.0,768.0,760.0,704.0,696.0,702.0,680.0,662.0,660.0,672.0,692.0,684.0,692.0,736.0,784.0,748.0,756.0,762.0,740.0,690.0,698.0,740.0,798.0,772.0,734.0,754.0,810.0,800.0,774.0,814.0,826.0,802.0,734.0,772.0,736.0,724.0,696.0,708.0,724.0,738.0,700.0,724.0,748.0,728.0,716.0,730.0,750.0,742.0,710.0,706.0,716.0,722.0,694.0,704.0,722.0,732.0,698.0,728.0,762.0,800.0,754.0,768.0,822.0,840.0,792.0,772.0,770.0,756.0,728.0,712.0,732.0,724.0,728.0,746.0,814.0,812.0,760.0,738.0,698.0,670.0,660.0,654.0,646.0,670.0,708.0,738.0,722.0,716.0,746.0,792.0,760.0,704.0,724.0,718.0,704.0,702.0,764.0,818.0,812.0,784.0,808.0,836.0,810.0,780.0,782.0,790.0,752.0,736.0,754.0,774.0,776.0,754.0,772.0,796.0,794.0,756.0,742.0,750.0,748.0,732.0,738.0,768.0,780.0,754.0,758.0,778.0,766.0,734.0,730.0,744.0,756.0,740.0,736.0,754.0,764.0,742.0,714.0,708.0,678.0,670.0,674.0,704.0,702.0,706.0,760.0,762.0,724.0,750.0,772.0,746.0,700.0,696.0,700.0,694.0,662.0,658.0,682.0,712.0,754.0,732.0,766.0,784.0,750.0,746.0,752.0,746.0,722.0,,,,,,,,,,,,,,,,,,,,,,,,,,,,,,,,,,,,,,,,,,,,,,,,,,,,,,,,,,,,,,,,,,,,,,,,,,,,,,,,,,,,,,,,,,,,,,,,,,,,,,,,,,,,,,,,,,,,,,,,,,,,,,,,,,,,,,,,,,,,,,,,,,,,,,,,,,,,,,,,,,,,,,,,,,,,,,,,,,,,,,,,,,,,,,,,,,,,,,,,,,,,,,,,,,,,,,,,,,,,,,,,,,,,,,,,,,,,,,,,,,,,,,,,,,,,,,,,,,,,,,,,,,,,,,,,,,,,,,,,,,,,,,
sub_12,normal,762.0,806.0,820.0,798.0,820.0,848.0,792.0,802.0,824.0,800.0,782.0,722.0,742.0,776.0,796.0,826.0,834.0,836.0,814.0,820.0,850.0,808.0,790.0,810.0,830.0,822.0,780.0,808.0,814.0,776.0,750.0,800.0,826.0,794.0,744.0,778.0,762.0,746.0,774.0,836.0,812.0,822.0,828.0,790.0,778.0,758.0,782.0,852.0,846.0,800.0,836.0,830.0,824.0,852.0,854.0,816.0,828.0,842.0,816.0,808.0,796.0,778.0,814.0,816.0,762.0,768.0,794.0,812.0,798.0,786.0,784.0,806.0,786.0,764.0,758.0,770.0,804.0,826.0,766.0,746.0,762.0,780.0,776.0,596.0,676.0,406.0,252.0,318.0,1892.0,1356.0,814.0,718.0,812.0,828.0,792.0,818.0,844.0,786.0,824.0,838.0,812.0,770.0,814.0,854.0,808.0,826.0,842.0,814.0,780.0,834.0,850.0,800.0,828.0,766.0,706.0,750.0,830.0,852.0,784.0,814.0,786.0,710.0,784.0,854.0,858.0,842.0,814.0,822.0,836.0,838.0,836.0,824.0,840.0,870.0,850.0,844.0,864.0,834.0,760.0,726.0,728.0,724.0,824.0,804.0,810.0,856.0,876.0,824.0,842.0,822.0,814.0,774.0,822.0,816.0,766.0,770.0,790.0,762.0,784.0,824.0,810.0,764.0,788.0,826.0,824.0,776.0,788.0,818.0,796.0,760.0,786.0,798.0,784.0,760.0,786.0,794.0,758.0,778.0,808.0,782.0,774.0,818.0,790.0,750.0,780.0,790.0,774.0,754.0,796.0,794.0,774.0,792.0,820.0,768.0,754.0,778.0,762.0,750.0,782.0,744.0,776.0,768.0,738.0,772.0,802.0,746.0,752.0,736.0,772.0,792.0,766.0,744.0,804.0,748.0,788.0,786.0,804.0,778.0,764.0,798.0,800.0,778.0,740.0,786.0,730.0,752.0,780.0,790.0,756.0,778.0,816.0,776.0,742.0,802.0,788.0,778.0,740.0,750.0,754.0,742.0,734.0,778.0,788.0,806.0,752.0,738.0,776.0,768.0,782.0,810.0,808.0,792.0,768.0,758.0,790.0,824.0,814.0,852.0,848.0,820.0,772.0,808.0,810.0,780.0,804.0,836.0,790.0,752.0,792.0,790.0,758.0,776.0,798.0,812.0,792.0,808.0,818.0,794.0,814.0,816.0,798.0,752.0,794.0,808.0,796.0,768.0,792.0,818.0,808.0,814.0,844.0,858.0,792.0,800.0,826.0,816.0,794.0,766.0,746.0,786.0,768.0,790.0,698.0,806.0,776.0,772.0,732.0,784.0,800.0,762.0,760.0,788.0,802.0,790.0,712.0,704.0,706.0,730.0,762.0,748.0,730.0,816.0,760.0,784.0,800.0,804.0,820.0,840.0,826.0,822.0,814.0,794.0,748.0,718.0,714.0,750.0,812.0,824.0,808.0,814.0,824.0,844.0,842.0,836.0,752.0,760.0,714.0,748.0,766.0,814.0,740.0,788.0,792.0,804.0,770.0,776.0,760.0,836.0,832.0,802.0,818.0,830.0,840.0,808.0,792.0,798.0,818.0,774.0,800.0,806.0,826.0,796.0,,,,,,,,,,,,,,,,,,,,,,,,,,,,,,,,,,,,,,,,,,,,,,,,,,,,,,,,,,,,,,,,,,,,,,,,,,,,,,,,,,,,,,,,,,,,,,,,,,,,,,,,,,,,,,,,,,,,,,,,,,,,,,,,,,,,,,,,,,,,,,,,,,,,,,,,,,,,,,,,,,,,,,,,,,,,,,,,,,,,,,,,,,,,,,,,,,,,,,,,,,,,,,,,,,,,,,,,,,,,,,,,,,,,,,,,,,,,,,,,,,,,,,,,,,,,,,,,,,,,,,,,,,,,,,,,,,,,,,,,,,,,,,,,,,,,,,,,,,,,,,,,,,,,,,
sub_13,normal,768.0,776.0,760.0,776.0,738.0,758.0,794.0,786.0,780.0,742.0,750.0,756.0,764.0,730.0,738.0,768.0,746.0,714.0,720.0,728.0,724.0,768.0,762.0,708.0,718.0,766.0,788.0,748.0,780.0,814.0,766.0,784.0,812.0,794.0,802.0,754.0,740.0,730.0,718.0,648.0,632.0,660.0,682.0,748.0,714.0,748.0,802.0,866.0,864.0,846.0,836.0,762.0,730.0,732.0,718.0,728.0,686.0,688.0,732.0,814.0,834.0,784.0,804.0,816.0,812.0,748.0,734.0,748.0,744.0,690.0,712.0,750.0,778.0,736.0,782.0,802.0,806.0,752.0,760.0,766.0,732.0,710.0,734.0,784.0,790.0,774.0,812.0,828.0,766.0,784.0,796.0,728.0,710.0,716.0,706.0,654.0,666.0,696.0,698.0,650.0,658.0,716.0,762.0,716.0,752.0,764.0,752.0,750.0,670.0,656.0,666.0,700.0,708.0,718.0,714.0,660.0,638.0,650.0,600.0,626.0,640.0,694.0,752.0,772.0,834.0,828.0,796.0,770.0,734.0,680.0,606.0,604.0,614.0,634.0,712.0,716.0,774.0,852.0,858.0,812.0,846.0,880.0,856.0,830.0,826.0,816.0,786.0,746.0,740.0,738.0,742.0,724.0,700.0,718.0,764.0,798.0,752.0,764.0,806.0,804.0,746.0,752.0,776.0,736.0,718.0,742.0,768.0,742.0,766.0,778.0,714.0,728.0,784.0,792.0,724.0,722.0,756.0,764.0,686.0,688.0,730.0,750.0,698.0,696.0,760.0,828.0,840.0,744.0,736.0,766.0,758.0,746.0,718.0,650.0,630.0,664.0,686.0,728.0,806.0,820.0,772.0,770.0,754.0,728.0,684.0,636.0,622.0,596.0,576.0,552.0,562.0,568.0,538.0,556.0,612.0,716.0,780.0,768.0,774.0,790.0,748.0,734.0,726.0,680.0,690.0,706.0,704.0,684.0,660.0,600.0,566.0,596.0,622.0,682.0,852.0,894.0,906.0,922.0,940.0,900.0,890.0,864.0,748.0,710.0,706.0,700.0,718.0,722.0,768.0,786.0,740.0,746.0,756.0,716.0,690.0,698.0,696.0,646.0,664.0,692.0,714.0,668.0,666.0,692.0,666.0,658.0,642.0,596.0,588.0,604.0,620.0,662.0,732.0,818.0,774.0,840.0,862.0,794.0,816.0,840.0,694.0,900.0,756.0,696.0,660.0,662.0,680.0,692.0,648.0,664.0,724.0,792.0,806.0,744.0,756.0,750.0,746.0,670.0,660.0,686.0,716.0,704.0,774.0,830.0,812.0,762.0,776.0,770.0,706.0,698.0,718.0,704.0,720.0,738.0,656.0,634.0,636.0,618.0,608.0,614.0,588.0,570.0,588.0,586.0,598.0,572.0,642.0,772.0,816.0,768.0,760.0,800.0,816.0,808.0,782.0,802.0,804.0,782.0,742.0,720.0,708.0,676.0,652.0,672.0,680.0,710.0,668.0,688.0,774.0,784.0,750.0,744.0,706.0,698.0,638.0,624.0,638.0,650.0,702.0,684.0,756.0,824.0,792.0,752.0,778.0,802.0,806.0,750.0,758.0,780.0,726.0,710.0,716.0,692.0,646.0,656.0,676.0,698.0,678.0,626.0,668.0,698.0,774.0,800.0,714.0,716.0,742.0,728.0,726.0,710.0,684.0,660.0,604.0,588.0,602.0,614.0,650.0,706.0,668.0,716.0,782.0,732.0,764.0,810.0,,,,,,,,,,,,,,,,,,,,,,,,,,,,,,,,,,,,,,,,,,,,,,,,,,,,,,,,,,,,,,,,,,,,,,,,,,,,,,,,,,,,,,,,,,,,,,,,,,,,,,,,,,,,,,,,,,,,,,,,,,,,,,,,,,,,,,,,,,,,,,,,,,,,,,,,,,,,,,,,,,,,,,,,,,,,,,,,,,,,,,,,,,,,,,,,,,,,,,,,,,,,,,,,,,,,,,,,,,,,,,,,,,,,,,,,,,,,,,,,,,,,,,,,,,,,,,,,,,,,,,,,,,,,,,,,,,,,,,
sub_14,normal,810.0,848.0,866.0,850.0,852.0,806.0,786.0,798.0,804.0,824.0,494.0,414.0,732.0,818.0,850.0,862.0,866.0,872.0,798.0,846.0,848.0,852.0,790.0,788.0,790.0,774.0,742.0,694.0,702.0,724.0,790.0,804.0,776.0,812.0,858.0,868.0,808.0,792.0,802.0,794.0,760.0,728.0,734.0,736.0,702.0,686.0,664.0,678.0,692.0,730.0,746.0,710.0,702.0,724.0,752.0,766.0,722.0,732.0,774.0,800.0,750.0,748.0,732.0,652.0,684.0,650.0,642.0,716.0,500.0,598.0,618.0,718.0,734.0,728.0,724.0,708.0,726.0,744.0,710.0,728.0,762.0,754.0,684.0,666.0,692.0,704.0,672.0,684.0,724.0,776.0,796.0,764.0,736.0,758.0,790.0,798.0,802.0,762.0,726.0,746.0,770.0,774.0,718.0,712.0,756.0,788.0,776.0,724.0,750.0,756.0,796.0,822.0,780.0,768.0,804.0,810.0,804.0,740.0,728.0,746.0,774.0,778.0,722.0,752.0,806.0,822.0,798.0,764.0,768.0,772.0,768.0,734.0,708.0,698.0,712.0,720.0,698.0,702.0,728.0,772.0,808.0,752.0,748.0,774.0,778.0,764.0,716.0,706.0,712.0,702.0,716.0,582.0,804.0,654.0,656.0,658.0,676.0,652.0,622.0,656.0,712.0,836.0,922.0,856.0,790.0,702.0,682.0,680.0,690.0,716.0,768.0,788.0,776.0,726.0,648.0,644.0,660.0,668.0,646.0,648.0,636.0,634.0,638.0,656.0,684.0,702.0,708.0,676.0,664.0,672.0,654.0,642.0,674.0,714.0,738.0,490.0,296.0,748.0,862.0,894.0,872.0,856.0,780.0,752.0,784.0,850.0,848.0,888.0,824.0,714.0,756.0,762.0,812.0,844.0,826.0,772.0,774.0,796.0,814.0,780.0,762.0,782.0,804.0,784.0,768.0,782.0,808.0,810.0,758.0,720.0,710.0,716.0,738.0,722.0,710.0,752.0,792.0,758.0,772.0,786.0,904.0,886.0,856.0,806.0,808.0,812.0,808.0,772.0,738.0,746.0,770.0,820.0,782.0,800.0,750.0,796.0,740.0,744.0,734.0,812.0,888.0,862.0,802.0,758.0,788.0,834.0,856.0,816.0,764.0,750.0,780.0,804.0,798.0,736.0,750.0,784.0,796.0,812.0,764.0,772.0,804.0,820.0,802.0,732.0,754.0,800.0,810.0,764.0,722.0,754.0,804.0,782.0,770.0,776.0,792.0,796.0,710.0,692.0,712.0,752.0,726.0,724.0,802.0,880.0,924.0,880.0,816.0,830.0,868.0,856.0,780.0,786.0,822.0,846.0,800.0,742.0,840.0,850.0,810.0,768.0,782.0,818.0,858.0,838.0,810.0,848.0,898.0,928.0,840.0,808.0,804.0,796.0,802.0,770.0,822.0,898.0,914.0,854.0,798.0,800.0,824.0,822.0,768.0,782.0,822.0,856.0,774.0,766.0,758.0,820.0,792.0,728.0,738.0,790.0,850.0,866.0,844.0,812.0,804.0,728.0,670.0,680.0,758.0,856.0,868.0,880.0,934.0,898.0,902.0,964.0,934.0,882.0,902.0,940.0,930.0,826.0,818.0,846.0,824.0,820.0,852.0,894.0,898.0,818.0,802.0,818.0,814.0,854.0,808.0,790.0,802.0,826.0,784.0,764.0,744.0,776.0,746.0,900.0,808.0,794.0,,,,,,,,,,,,,,,,,,,,,,,,,,,,,,,,,,,,,,,,,,,,,,,,,,,,,,,,,,,,,,,,,,,,,,,,,,,,,,,,,,,,,,,,,,,,,,,,,,,,,,,,,,,,,,,,,,,,,,,,,,,,,,,,,,,,,,,,,,,,,,,,,,,,,,,,,,,,,,,,,,,,,,,,,,,,,,,,,,,,,,,,,,,,,,,,,,,,,,,,,,,,,,,,,,,,,,,,,,,,,,,,,,,,,,,,,,,,,,,,,,,,,,,,,,,,,,,,,,,,,,,,,,,,,,,,,,,,,,,,,,
sub_15,normal,690.0,854.0,792.0,740.0,758.0,790.0,794.0,764.0,826.0,824.0,786.0,758.0,784.0,814.0,818.0,800.0,784.0,832.0,844.0,764.0,772.0,834.0,780.0,786.0,822.0,842.0,788.0,752.0,782.0,802.0,796.0,744.0,762.0,772.0,766.0,774.0,782.0,790.0,730.0,722.0,776.0,802.0,798.0,770.0,716.0,752.0,780.0,822.0,762.0,840.0,890.0,864.0,788.0,832.0,850.0,762.0,756.0,772.0,750.0,714.0,742.0,798.0,888.0,850.0,770.0,802.0,816.0,762.0,738.0,736.0,764.0,852.0,866.0,860.0,820.0,802.0,738.0,678.0,670.0,708.0,746.0,868.0,876.0,850.0,848.0,938.0,870.0,814.0,794.0,884.0,822.0,866.0,792.0,784.0,734.0,690.0,648.0,700.0,840.0,866.0,858.0,832.0,830.0,840.0,846.0,878.0,880.0,860.0,864.0,862.0,848.0,812.0,736.0,732.0,768.0,798.0,826.0,764.0,828.0,878.0,890.0,812.0,818.0,814.0,764.0,730.0,752.0,806.0,792.0,766.0,828.0,874.0,900.0,832.0,778.0,808.0,816.0,824.0,756.0,780.0,762.0,736.0,762.0,786.0,762.0,734.0,782.0,790.0,724.0,740.0,760.0,748.0,734.0,752.0,790.0,800.0,768.0,812.0,770.0,778.0,780.0,770.0,744.0,754.0,786.0,736.0,768.0,796.0,752.0,742.0,766.0,750.0,728.0,760.0,796.0,748.0,742.0,752.0,790.0,748.0,774.0,786.0,808.0,742.0,736.0,776.0,802.0,758.0,784.0,812.0,794.0,764.0,730.0,682.0,690.0,734.0,670.0,692.0,728.0,764.0,738.0,788.0,836.0,768.0,718.0,724.0,732.0,688.0,710.0,742.0,748.0,762.0,798.0,818.0,748.0,774.0,714.0,718.0,744.0,714.0,682.0,720.0,728.0,694.0,716.0,748.0,740.0,706.0,716.0,720.0,670.0,662.0,694.0,688.0,668.0,718.0,714.0,694.0,774.0,802.0,780.0,728.0,712.0,742.0,716.0,682.0,712.0,734.0,698.0,692.0,774.0,712.0,714.0,720.0,692.0,672.0,678.0,696.0,672.0,674.0,702.0,742.0,718.0,754.0,784.0,778.0,764.0,790.0,772.0,714.0,730.0,740.0,704.0,700.0,744.0,764.0,736.0,748.0,770.0,728.0,726.0,740.0,702.0,700.0,742.0,706.0,686.0,728.0,744.0,690.0,702.0,718.0,698.0,678.0,718.0,738.0,696.0,670.0,722.0,750.0,716.0,688.0,704.0,712.0,680.0,690.0,722.0,710.0,708.0,740.0,746.0,696.0,670.0,652.0,640.0,688.0,624.0,674.0,738.0,796.0,778.0,720.0,748.0,752.0,756.0,696.0,660.0,638.0,630.0,808.0,954.0,952.0,928.0,922.0,900.0,852.0,862.0,870.0,834.0,812.0,764.0,726.0,736.0,808.0,854.0,860.0,806.0,814.0,862.0,820.0,750.0,772.0,814.0,836.0,794.0,778.0,806.0,800.0,738.0,734.0,756.0,784.0,744.0,762.0,806.0,800.0,742.0,762.0,796.0,806.0,758.0,740.0,764.0,782.0,744.0,742.0,786.0,746.0,722.0,760.0,736.0,778.0,752.0,740.0,762.0,760.0,706.0,700.0,732.0,758.0,764.0,824.0,868.0,856.0,802.0,820.0,782.0,768.0,,,,,,,,,,,,,,,,,,,,,,,,,,,,,,,,,,,,,,,,,,,,,,,,,,,,,,,,,,,,,,,,,,,,,,,,,,,,,,,,,,,,,,,,,,,,,,,,,,,,,,,,,,,,,,,,,,,,,,,,,,,,,,,,,,,,,,,,,,,,,,,,,,,,,,,,,,,,,,,,,,,,,,,,,,,,,,,,,,,,,,,,,,,,,,,,,,,,,,,,,,,,,,,,,,,,,,,,,,,,,,,,,,,,,,,,,,,,,,,,,,,,,,,,,,,,,,,,,,,,,,,,,,,,,,,,,,,,,,,,,,,,
sub_16,normal,668.0,690.0,646.0,630.0,636.0,616.0,586.0,608.0,650.0,664.0,710.0,770.0,696.0,664.0,670.0,622.0,640.0,618.0,474.0,624.0,578.0,584.0,626.0,594.0,636.0,704.0,690.0,706.0,696.0,648.0,684.0,688.0,652.0,600.0,586.0,592.0,566.0,564.0,546.0,612.0,560.0,706.0,720.0,732.0,702.0,712.0,766.0,688.0,678.0,676.0,716.0,728.0,736.0,734.0,702.0,708.0,690.0,664.0,688.0,708.0,620.0,636.0,624.0,636.0,646.0,638.0,684.0,716.0,752.0,694.0,734.0,676.0,644.0,648.0,610.0,624.0,628.0,650.0,708.0,738.0,688.0,720.0,756.0,732.0,706.0,738.0,740.0,676.0,684.0,696.0,742.0,704.0,644.0,676.0,684.0,600.0,658.0,630.0,612.0,604.0,614.0,590.0,588.0,632.0,624.0,636.0,650.0,682.0,702.0,700.0,684.0,668.0,718.0,766.0,728.0,692.0,746.0,794.0,726.0,716.0,682.0,684.0,676.0,688.0,744.0,782.0,774.0,708.0,738.0,770.0,736.0,684.0,638.0,650.0,704.0,716.0,718.0,732.0,792.0,850.0,766.0,756.0,784.0,720.0,710.0,736.0,754.0,748.0,822.0,852.0,752.0,754.0,786.0,756.0,732.0,818.0,838.0,756.0,782.0,772.0,702.0,744.0,820.0,762.0,738.0,744.0,716.0,686.0,688.0,678.0,656.0,652.0,674.0,654.0,676.0,692.0,656.0,650.0,622.0,598.0,612.0,632.0,620.0,598.0,606.0,620.0,650.0,614.0,622.0,656.0,664.0,710.0,686.0,650.0,648.0,656.0,644.0,604.0,618.0,634.0,672.0,670.0,654.0,620.0,606.0,614.0,596.0,618.0,642.0,620.0,644.0,648.0,634.0,642.0,692.0,688.0,654.0,688.0,726.0,690.0,682.0,704.0,674.0,632.0,626.0,648.0,676.0,662.0,710.0,724.0,694.0,734.0,708.0,664.0,680.0,676.0,674.0,652.0,656.0,678.0,676.0,652.0,722.0,766.0,732.0,694.0,726.0,710.0,680.0,690.0,724.0,674.0,666.0,658.0,692.0,756.0,740.0,696.0,706.0,666.0,656.0,660.0,634.0,680.0,650.0,674.0,708.0,714.0,670.0,646.0,676.0,690.0,664.0,650.0,626.0,662.0,720.0,692.0,682.0,706.0,720.0,678.0,686.0,734.0,708.0,672.0,696.0,706.0,680.0,666.0,674.0,646.0,634.0,636.0,670.0,634.0,658.0,698.0,694.0,644.0,660.0,634.0,630.0,604.0,584.0,562.0,566.0,598.0,640.0,616.0,618.0,636.0,664.0,678.0,646.0,612.0,606.0,622.0,614.0,616.0,610.0,614.0,644.0,634.0,636.0,658.0,642.0,614.0,628.0,650.0,680.0,654.0,674.0,692.0,682.0,652.0,666.0,688.0,640.0,660.0,668.0,664.0,620.0,616.0,608.0,570.0,590.0,618.0,542.0,522.0,572.0,520.0,522.0,514.0,510.0,512.0,498.0,500.0,470.0,528.0,486.0,484.0,530.0,506.0,512.0,480.0,568.0,472.0,580.0,514.0,536.0,552.0,594.0,648.0,532.0,612.0,642.0,666.0,698.0,724.0,690.0,686.0,662.0,618.0,610.0,568.0,558.0,566.0,550.0,576.0,620.0,684.0,722.0,714.0,750.0,678.0,658.0,654.0,656.0,664.0,662.0,658.0,654.0,618.0,604.0,596.0,578.0,636.0,630.0,642.0,682.0,732.0,698.0,672.0,650.0,656.0,694.0,734.0,726.0,706.0,780.0,756.0,696.0,704.0,712.0,698.0,650.0,686.0,694.0,668.0,678.0,716.0,754.0,716.0,678.0,702.0,684.0,640.0,682.0,710.0,672.0,686.0,722.0,,,,,,,,,,,,,,,,,,,,,,,,,,,,,,,,,,,,,,,,,,,,,,,,,,,,,,,,,,,,,,,,,,,,,,,,,,,,,,,,,,,,,,,,,,,,,,,,,,,,,,,,,,,,,,,,,,,,,,,,,,,,,,,,,,,,,,,,,,,,,,,,,,,,,,,,,,,,,,,,,,,,,,,,,,,,,,,,,,,,,,,,,,,,,,,,,,,,,,,,,,,,,,,,,,,,,,,,,,,,,,,,,,,,,,,,,,,,,,,
sub_17,normal,600.0,616.0,674.0,650.0,606.0,698.0,702.0,708.0,672.0,644.0,706.0,712.0,722.0,678.0,704.0,736.0,758.0,772.0,592.0,896.0,538.0,618.0,706.0,704.0,718.0,682.0,698.0,632.0,618.0,692.0,540.0,678.0,724.0,736.0,726.0,664.0,662.0,688.0,720.0,662.0,710.0,728.0,752.0,758.0,726.0,686.0,684.0,664.0,700.0,666.0,650.0,652.0,656.0,690.0,692.0,702.0,738.0,710.0,676.0,702.0,686.0,666.0,662.0,698.0,694.0,682.0,704.0,782.0,728.0,724.0,766.0,716.0,730.0,708.0,716.0,680.0,654.0,684.0,642.0,718.0,654.0,628.0,656.0,684.0,672.0,640.0,682.0,650.0,784.0,550.0,710.0,698.0,646.0,696.0,606.0,644.0,704.0,674.0,600.0,680.0,726.0,752.0,760.0,740.0,664.0,644.0,744.0,718.0,668.0,688.0,746.0,782.0,682.0,736.0,734.0,1954.0,1428.0,1230.0,740.0,674.0,758.0,582.0,660.0,656.0,650.0,634.0,620.0,636.0,682.0,726.0,686.0,780.0,878.0,696.0,732.0,722.0,692.0,660.0,668.0,610.0,662.0,650.0,614.0,668.0,694.0,674.0,670.0,710.0,682.0,650.0,674.0,690.0,674.0,646.0,666.0,694.0,672.0,666.0,688.0,672.0,670.0,648.0,688.0,656.0,648.0,640.0,638.0,648.0,626.0,644.0,680.0,640.0,638.0,672.0,696.0,678.0,706.0,702.0,658.0,656.0,688.0,694.0,634.0,708.0,578.0,616.0,596.0,584.0,638.0,698.0,650.0,676.0,720.0,694.0,744.0,700.0,670.0,674.0,692.0,710.0,676.0,720.0,752.0,718.0,672.0,694.0,692.0,742.0,642.0,674.0,694.0,662.0,664.0,614.0,652.0,624.0,1196.0,718.0,472.0,648.0,608.0,628.0,678.0,686.0,664.0,628.0,638.0,626.0,620.0,684.0,602.0,664.0,672.0,694.0,634.0,612.0,620.0,648.0,680.0,586.0,668.0,628.0,640.0,606.0,620.0,624.0,628.0,606.0,620.0,616.0,600.0,630.0,572.0,600.0,594.0,640.0,656.0,652.0,656.0,1316.0,790.0,476.0,568.0,622.0,536.0,566.0,568.0,582.0,578.0,662.0,606.0,638.0,656.0,638.0,670.0,740.0,642.0,650.0,668.0,658.0,642.0,616.0,648.0,642.0,634.0,650.0,708.0,696.0,682.0,666.0,680.0,634.0,660.0,614.0,628.0,624.0,612.0,606.0,614.0,622.0,602.0,604.0,640.0,644.0,646.0,620.0,592.0,598.0,596.0,600.0,618.0,628.0,610.0,624.0,654.0,644.0,658.0,644.0,670.0,686.0,672.0,642.0,668.0,680.0,692.0,686.0,698.0,730.0,690.0,686.0,672.0,684.0,686.0,676.0,670.0,698.0,692.0,658.0,680.0,670.0,672.0,656.0,626.0,618.0,620.0,662.0,652.0,632.0,652.0,684.0,650.0,692.0,690.0,678.0,656.0,662.0,698.0,680.0,664.0,676.0,706.0,694.0,668.0,688.0,702.0,708.0,674.0,686.0,716.0,684.0,666.0,692.0,700.0,706.0,670.0,692.0,712.0,704.0,670.0,654.0,688.0,644.0,636.0,614.0,662.0,666.0,626.0,666.0,682.0,676.0,664.0,624.0,656.0,664.0,616.0,622.0,652.0,640.0,646.0,624.0,620.0,602.0,662.0,642.0,604.0,622.0,666.0,686.0,634.0,648.0,666.0,682.0,656.0,624.0,640.0,658.0,652.0,642.0,622.0,1278.0,766.0,502.0,660.0,614.0,612.0,578.0,630.0,660.0,648.0,664.0,630.0,674.0,590.0,640.0,560.0,608.0,592.0,600.0,,,,,,,,,,,,,,,,,,,,,,,,,,,,,,,,,,,,,,,,,,,,,,,,,,,,,,,,,,,,,,,,,,,,,,,,,,,,,,,,,,,,,,,,,,,,,,,,,,,,,,,,,,,,,,,,,,,,,,,,,,,,,,,,,,,,,,,,,,,,,,,,,,,,,,,,,,,,,,,,,,,,,,,,,,,,,,,,,,,,,,,,,,,,,,,,,,,,,,,,,,,,,,,,,,,,,,,,,,,,,,,,,,,,,,,,,,,,,,,,,,,,
sub_18,normal,662.0,680.0,634.0,694.0,792.0,806.0,764.0,848.0,880.0,752.0,782.0,794.0,742.0,708.0,658.0,620.0,644.0,744.0,728.0,736.0,846.0,854.0,788.0,838.0,850.0,780.0,768.0,774.0,722.0,684.0,746.0,770.0,670.0,728.0,818.0,736.0,712.0,754.0,734.0,668.0,766.0,822.0,708.0,750.0,800.0,706.0,744.0,800.0,714.0,700.0,694.0,728.0,666.0,628.0,670.0,704.0,750.0,670.0,764.0,680.0,756.0,694.0,716.0,634.0,618.0,656.0,722.0,698.0,704.0,722.0,716.0,668.0,700.0,718.0,708.0,644.0,622.0,638.0,602.0,612.0,636.0,622.0,604.0,664.0,736.0,686.0,678.0,720.0,794.0,682.0,702.0,750.0,682.0,670.0,728.0,798.0,694.0,746.0,772.0,662.0,714.0,782.0,700.0,718.0,766.0,786.0,700.0,738.0,810.0,786.0,734.0,774.0,776.0,700.0,728.0,742.0,734.0,668.0,710.0,750.0,694.0,754.0,868.0,740.0,718.0,778.0,784.0,674.0,736.0,814.0,742.0,664.0,732.0,780.0,718.0,730.0,702.0,664.0,634.0,598.0,614.0,668.0,680.0,648.0,670.0,708.0,648.0,630.0,668.0,712.0,772.0,684.0,690.0,758.0,784.0,736.0,724.0,742.0,722.0,662.0,710.0,756.0,738.0,684.0,738.0,746.0,662.0,690.0,698.0,684.0,688.0,824.0,748.0,652.0,656.0,670.0,654.0,648.0,756.0,802.0,730.0,728.0,782.0,742.0,656.0,720.0,712.0,656.0,682.0,666.0,634.0,702.0,638.0,606.0,628.0,652.0,696.0,726.0,718.0,692.0,668.0,620.0,624.0,662.0,656.0,630.0,704.0,812.0,750.0,676.0,736.0,792.0,678.0,654.0,694.0,746.0,756.0,720.0,756.0,828.0,772.0,768.0,822.0,840.0,816.0,696.0,712.0,762.0,662.0,608.0,632.0,674.0,752.0,696.0,676.0,686.0,756.0,782.0,732.0,708.0,636.0,680.0,700.0,722.0,640.0,668.0,724.0,760.0,670.0,706.0,758.0,786.0,712.0,716.0,690.0,712.0,658.0,630.0,644.0,614.0,578.0,604.0,650.0,656.0,626.0,698.0,810.0,772.0,688.0,774.0,802.0,732.0,730.0,810.0,874.0,766.0,746.0,768.0,770.0,682.0,658.0,694.0,752.0,712.0,760.0,856.0,840.0,732.0,758.0,786.0,718.0,690.0,728.0,742.0,656.0,688.0,790.0,770.0,672.0,712.0,790.0,762.0,682.0,724.0,828.0,720.0,684.0,700.0,678.0,626.0,630.0,664.0,684.0,638.0,632.0,662.0,688.0,658.0,660.0,780.0,804.0,700.0,766.0,870.0,784.0,686.0,708.0,678.0,604.0,610.0,606.0,600.0,660.0,642.0,614.0,670.0,754.0,738.0,666.0,700.0,740.0,676.0,678.0,718.0,748.0,670.0,722.0,838.0,800.0,670.0,688.0,700.0,720.0,734.0,720.0,654.0,622.0,638.0,664.0,668.0,618.0,658.0,710.0,686.0,648.0,688.0,736.0,662.0,668.0,700.0,712.0,634.0,630.0,674.0,750.0,692.0,688.0,756.0,790.0,688.0,668.0,712.0,688.0,648.0,680.0,748.0,744.0,684.0,606.0,596.0,582.0,574.0,594.0,648.0,626.0,688.0,778.0,716.0,646.0,712.0,750.0,694.0,644.0,680.0,732.0,692.0,660.0,724.0,772.0,688.0,698.0,760.0,766.0,666.0,686.0,702.0,668.0,602.0,618.0,694.0,718.0,656.0,702.0,736.0,700.0,422.0,298.0,670.0,682.0,632.0,662.0,720.0,748.0,670.0,,,,,,,,,,,,,,,,,,,,,,,,,,,,,,,,,,,,,,,,,,,,,,,,,,,,,,,,,,,,,,,,,,,,,,,,,,,,,,,,,,,,,,,,,,,,,,,,,,,,,,,,,,,,,,,,,,,,,,,,,,,,,,,,,,,,,,,,,,,,,,,,,,,,,,,,,,,,,,,,,,,,,,,,,,,,,,,,,,,,,,,,,,,,,,,,,,,,,,,,,,,,,,,,,,,,,,,,,,,,,,,,,,,,,,,,,,,,,,,,,,,,,,,,
sub_19,normal,604.0,610.0,614.0,616.0,656.0,660.0,636.0,632.0,662.0,654.0,624.0,622.0,624.0,612.0,610.0,616.0,592.0,594.0,598.0,594.0,600.0,598.0,600.0,596.0,584.0,578.0,594.0,582.0,574.0,576.0,560.0,574.0,568.0,572.0,580.0,592.0,586.0,592.0,590.0,588.0,604.0,578.0,594.0,596.0,600.0,608.0,598.0,602.0,614.0,604.0,606.0,618.0,622.0,604.0,614.0,618.0,602.0,594.0,590.0,580.0,590.0,596.0,598.0,586.0,574.0,578.0,576.0,578.0,588.0,600.0,610.0,608.0,600.0,602.0,600.0,596.0,600.0,596.0,576.0,568.0,564.0,566.0,586.0,602.0,628.0,672.0,696.0,660.0,626.0,628.0,656.0,638.0,618.0,626.0,622.0,618.0,598.0,600.0,602.0,604.0,608.0,598.0,602.0,614.0,610.0,598.0,600.0,596.0,606.0,598.0,604.0,602.0,610.0,590.0,584.0,576.0,566.0,568.0,574.0,576.0,568.0,564.0,546.0,560.0,574.0,594.0,610.0,606.0,598.0,596.0,604.0,596.0,606.0,622.0,636.0,642.0,626.0,630.0,634.0,638.0,632.0,616.0,600.0,606.0,604.0,602.0,608.0,594.0,612.0,620.0,630.0,640.0,630.0,636.0,624.0,608.0,594.0,584.0,574.0,576.0,586.0,600.0,616.0,604.0,618.0,632.0,648.0,646.0,614.0,630.0,640.0,656.0,668.0,672.0,684.0,700.0,692.0,648.0,636.0,626.0,608.0,596.0,610.0,650.0,700.0,692.0,706.0,730.0,698.0,680.0,684.0,662.0,640.0,638.0,634.0,616.0,610.0,612.0,614.0,606.0,608.0,620.0,618.0,612.0,626.0,622.0,620.0,606.0,596.0,598.0,602.0,604.0,628.0,640.0,648.0,630.0,644.0,646.0,636.0,622.0,638.0,634.0,632.0,618.0,610.0,608.0,618.0,610.0,632.0,644.0,628.0,620.0,622.0,624.0,608.0,610.0,616.0,618.0,604.0,610.0,616.0,626.0,610.0,606.0,608.0,610.0,596.0,606.0,624.0,626.0,616.0,620.0,622.0,630.0,610.0,604.0,606.0,596.0,604.0,616.0,622.0,612.0,600.0,614.0,612.0,602.0,588.0,594.0,588.0,580.0,590.0,598.0,582.0,588.0,576.0,574.0,582.0,596.0,580.0,592.0,578.0,580.0,574.0,568.0,574.0,562.0,570.0,580.0,602.0,608.0,618.0,610.0,612.0,598.0,606.0,608.0,606.0,596.0,616.0,636.0,640.0,630.0,650.0,636.0,644.0,616.0,618.0,638.0,620.0,616.0,620.0,628.0,616.0,612.0,616.0,624.0,626.0,610.0,616.0,614.0,608.0,596.0,606.0,598.0,608.0,594.0,612.0,618.0,620.0,606.0,614.0,608.0,602.0,606.0,620.0,600.0,614.0,620.0,630.0,616.0,618.0,626.0,618.0,594.0,596.0,600.0,594.0,588.0,582.0,596.0,600.0,596.0,604.0,620.0,626.0,618.0,608.0,612.0,610.0,586.0,600.0,594.0,592.0,576.0,592.0,600.0,608.0,588.0,606.0,602.0,596.0,584.0,602.0,594.0,590.0,574.0,594.0,596.0,600.0,590.0,602.0,600.0,586.0,594.0,588.0,582.0,572.0,584.0,586.0,596.0,582.0,594.0,586.0,588.0,598.0,590.0,572.0,580.0,568.0,562.0,558.0,574.0,566.0,582.0,584.0,574.0,570.0,562.0,574.0,564.0,580.0,596.0,628.0,648.0,644.0,630.0,628.0,612.0,618.0,616.0,624.0,634.0,628.0,624.0,626.0,618.0,606.0,590.0,594.0,590.0,586.0,584.0,596.0,602.0,610.0,608.0,610.0,626.0,634.0,646.0,624.0,634.0,624.0,618.0,620.0,604.0,614.0,616.0,634.0,614.0,640.0,624.0,620.0,612.0,620.0,622.0,606.0,620.0,628.0,626.0,610.0,630.0,632.0,626.0,606.0,616.0,608.0,,,,,,,,,,,,,,,,,,,,,,,,,,,,,,,,,,,,,,,,,,,,,,,,,,,,,,,,,,,,,,,,,,,,,,,,,,,,,,,,,,,,,,,,,,,,,,,,,,,,,,,,,,,,,,,,,,,,,,,,,,,,,,,,,,,,,,,,,,,,,,,,,,,,,,,,,,,,,,,,,,,,,,,,,,,,,,,,,,,,,,,,,,,,,,,,,,,,,,,,,,,,,,,,,,,,,,,
sub_20,normal,286.0,544.0,326.0,548.0,892.0,862.0,806.0,840.0,864.0,868.0,822.0,864.0,908.0,884.0,870.0,944.0,1022.0,952.0,962.0,960.0,882.0,922.0,946.0,880.0,918.0,958.0,936.0,994.0,968.0,830.0,802.0,892.0,962.0,982.0,892.0,920.0,958.0,870.0,932.0,948.0,908.0,972.0,952.0,940.0,976.0,888.0,884.0,954.0,918.0,920.0,956.0,840.0,896.0,966.0,940.0,906.0,950.0,838.0,846.0,938.0,978.0,918.0,970.0,918.0,854.0,932.0,940.0,874.0,894.0,948.0,904.0,964.0,976.0,948.0,990.0,948.0,988.0,934.0,948.0,916.0,962.0,910.0,912.0,962.0,878.0,852.0,940.0,946.0,864.0,920.0,910.0,916.0,932.0,902.0,954.0,908.0,894.0,938.0,836.0,886.0,922.0,836.0,888.0,878.0,872.0,928.0,866.0,910.0,838.0,892.0,856.0,922.0,882.0,922.0,886.0,878.0,928.0,840.0,886.0,946.0,862.0,882.0,946.0,896.0,916.0,944.0,868.0,908.0,950.0,936.0,908.0,954.0,948.0,880.0,924.0,968.0,910.0,874.0,928.0,952.0,836.0,770.0,868.0,944.0,894.0,856.0,922.0,904.0,872.0,938.0,916.0,906.0,938.0,894.0,938.0,936.0,852.0,894.0,934.0,854.0,852.0,928.0,882.0,856.0,916.0,902.0,846.0,888.0,902.0,858.0,914.0,854.0,880.0,940.0,870.0,926.0,912.0,900.0,950.0,890.0,924.0,906.0,878.0,920.0,860.0,892.0,906.0,836.0,884.0,824.0,894.0,852.0,838.0,912.0,870.0,882.0,912.0,828.0,876.0,884.0,840.0,888.0,844.0,858.0,910.0,832.0,856.0,910.0,850.0,866.0,938.0,898.0,890.0,940.0,852.0,872.0,904.0,834.0,884.0,908.0,858.0,904.0,886.0,846.0,890.0,856.0,866.0,904.0,840.0,874.0,888.0,846.0,894.0,880.0,858.0,896.0,850.0,854.0,906.0,858.0,866.0,904.0,810.0,762.0,824.0,870.0,808.0,860.0,910.0,850.0,864.0,908.0,862.0,844.0,896.0,830.0,884.0,850.0,840.0,902.0,872.0,852.0,892.0,870.0,836.0,900.0,876.0,872.0,906.0,850.0,900.0,888.0,844.0,882.0,838.0,852.0,874.0,836.0,892.0,880.0,842.0,894.0,850.0,836.0,870.0,814.0,842.0,824.0,804.0,858.0,818.0,816.0,856.0,838.0,792.0,842.0,878.0,808.0,848.0,886.0,802.0,770.0,836.0,876.0,842.0,858.0,904.0,854.0,892.0,896.0,844.0,878.0,842.0,856.0,902.0,846.0,894.0,836.0,874.0,828.0,834.0,868.0,814.0,854.0,846.0,820.0,864.0,812.0,826.0,870.0,802.0,832.0,862.0,750.0,828.0,890.0,868.0,,,,,,,,,,,,,,,,,,,,,,,,,,,,,,,,,,,,,,,,,,,,,,,,,,,,,,,,,,,,,,,,,,,,,,,,,,,,,,,,,,,,,,,,,,,,,,,,,,,,,,,,,,,,,,,,,,,,,,,,,,,,,,,,,,,,,,,,,,,,,,,,,,,,,,,,,,,,,,,,,,,,,,,,,,,,,,,,,,,,,,,,,,,,,,,,,,,,,,,,,,,,,,,,,,,,,,,,,,,,,,,,,,,,,,,,,,,,,,,,,,,,,,,,,,,,,,,,,,,,,,,,,,,,,,,,,,,,,,,,,,,,,,,,,,,,,,,,,,,,,,,,,,,,,,,,,,,,,,,,,,,,,,,,,,,,,,,,,,,,,,,,,
sub_21,normal,588.0,586.0,584.0,600.0,604.0,650.0,652.0,622.0,616.0,628.0,616.0,608.0,598.0,574.0,564.0,576.0,574.0,596.0,648.0,708.0,714.0,684.0,656.0,608.0,600.0,624.0,630.0,606.0,600.0,612.0,638.0,622.0,610.0,614.0,634.0,626.0,608.0,592.0,636.0,654.0,658.0,638.0,640.0,664.0,678.0,648.0,636.0,644.0,650.0,648.0,628.0,618.0,632.0,616.0,604.0,622.0,642.0,626.0,620.0,642.0,636.0,614.0,600.0,596.0,592.0,612.0,618.0,604.0,612.0,636.0,666.0,658.0,628.0,626.0,650.0,676.0,690.0,668.0,662.0,686.0,698.0,672.0,664.0,668.0,650.0,640.0,636.0,616.0,608.0,620.0,642.0,678.0,706.0,694.0,678.0,712.0,736.0,742.0,686.0,654.0,652.0,656.0,642.0,632.0,646.0,676.0,700.0,676.0,644.0,628.0,624.0,638.0,646.0,636.0,628.0,658.0,698.0,722.0,694.0,688.0,700.0,710.0,692.0,652.0,626.0,640.0,646.0,642.0,604.0,624.0,650.0,656.0,638.0,626.0,650.0,630.0,628.0,614.0,584.0,586.0,578.0,598.0,616.0,626.0,604.0,598.0,608.0,644.0,694.0,668.0,648.0,664.0,666.0,638.0,612.0,610.0,620.0,632.0,620.0,606.0,610.0,648.0,670.0,646.0,660.0,702.0,722.0,700.0,662.0,660.0,668.0,666.0,642.0,622.0,632.0,654.0,678.0,658.0,654.0,678.0,668.0,644.0,638.0,660.0,666.0,638.0,622.0,634.0,654.0,676.0,660.0,648.0,660.0,666.0,652.0,628.0,612.0,614.0,640.0,670.0,664.0,646.0,654.0,672.0,688.0,692.0,658.0,644.0,650.0,658.0,664.0,644.0,634.0,666.0,700.0,722.0,690.0,676.0,688.0,674.0,636.0,616.0,638.0,632.0,646.0,622.0,638.0,626.0,612.0,614.0,612.0,592.0,586.0,594.0,604.0,626.0,656.0,646.0,624.0,646.0,680.0,714.0,722.0,678.0,648.0,660.0,650.0,644.0,624.0,600.0,586.0,590.0,596.0,610.0,606.0,626.0,664.0,710.0,692.0,662.0,658.0,668.0,676.0,670.0,642.0,622.0,620.0,614.0,610.0,602.0,600.0,620.0,656.0,646.0,630.0,644.0,674.0,684.0,666.0,648.0,644.0,648.0,652.0,650.0,624.0,614.0,624.0,632.0,670.0,686.0,668.0,676.0,694.0,696.0,670.0,646.0,650.0,658.0,676.0,684.0,662.0,656.0,660.0,678.0,710.0,690.0,676.0,692.0,684.0,656.0,642.0,638.0,632.0,618.0,600.0,584.0,602.0,662.0,716.0,704.0,668.0,662.0,668.0,672.0,668.0,642.0,630.0,636.0,644.0,646.0,638.0,628.0,646.0,670.0,680.0,658.0,648.0,660.0,668.0,676.0,652.0,636.0,632.0,636.0,650.0,642.0,650.0,684.0,708.0,690.0,670.0,674.0,676.0,658.0,636.0,614.0,610.0,622.0,652.0,666.0,648.0,654.0,668.0,678.0,652.0,638.0,642.0,644.0,630.0,612.0,608.0,624.0,644.0,686.0,690.0,664.0,670.0,684.0,682.0,652.0,650.0,670.0,656.0,630.0,618.0,628.0,644.0,668.0,664.0,660.0,676.0,684.0,676.0,650.0,640.0,634.0,622.0,630.0,652.0,666.0,658.0,640.0,638.0,642.0,648.0,636.0,620.0,636.0,664.0,676.0,662.0,666.0,682.0,688.0,670.0,646.0,656.0,642.0,628.0,622.0,642.0,672.0,678.0,666.0,692.0,710.0,694.0,666.0,656.0,644.0,622.0,610.0,628.0,644.0,652.0,644.0,664.0,686.0,692.0,682.0,654.0,642.0,644.0,646.0,634.0,622.0,632.0,648.0,652.0,636.0,624.0,640.0,654.0,642.0,626.0,622.0,628.0,614.0,606.0,616.0,634.0,662.0,654.0,640.0,650.0,668.0,684.0,688.0,670.0,644.0,642.0,630.0,624.0,646.0,678.0,704.0,682.0,666.0,684.0,694.0,684.0,658.0,652.0,654.0,658.0,662.0,644.0,642.0,664.0,692.0,714.0,704.0,686.0,690.0,686.0,666.0,638.0,636.0,656.0,684.0,678.0,658.0,678.0,704.0,720.0,680.0,660.0,670.0,674.0,658.0,622.0,612.0,610.0,598.0,610.0,598.0,586.0,604.0,620.0,642.0,622.0,612.0,618.0,624.0,636.0,634.0,618.0,624.0,644.0,662.0,,,,,,,,,,,,,,,,,,,,,,,,,,,,,,,,,,,,,,,,,,,,,,,,,,,,,,,,,,,,,,,,,,,,,,,,,,,,,,,,,,,,,,,,,,,,,,,,,,,,,,,,,,,,,,,,,,,,,,,,,,,,,,,,,,,,,,,,,,,,,,,,,,,,,,,,
sub_22,normal,792.0,884.0,786.0,694.0,680.0,820.0,746.0,668.0,836.0,934.0,888.0,770.0,718.0,946.0,950.0,806.0,688.0,630.0,668.0,922.0,694.0,596.0,766.0,680.0,640.0,948.0,834.0,688.0,772.0,886.0,766.0,712.0,822.0,808.0,698.0,776.0,880.0,798.0,690.0,758.0,894.0,912.0,764.0,670.0,844.0,898.0,744.0,760.0,888.0,776.0,710.0,946.0,870.0,708.0,688.0,840.0,748.0,652.0,644.0,620.0,748.0,868.0,778.0,726.0,656.0,606.0,738.0,760.0,664.0,620.0,744.0,820.0,722.0,662.0,822.0,910.0,778.0,694.0,826.0,780.0,668.0,698.0,774.0,718.0,642.0,772.0,828.0,786.0,662.0,626.0,780.0,742.0,650.0,670.0,796.0,772.0,678.0,752.0,810.0,772.0,662.0,632.0,770.0,706.0,632.0,624.0,652.0,604.0,570.0,558.0,554.0,704.0,676.0,638.0,646.0,654.0,608.0,588.0,808.0,822.0,760.0,674.0,776.0,838.0,794.0,684.0,744.0,816.0,782.0,674.0,660.0,740.0,758.0,674.0,650.0,748.0,744.0,656.0,620.0,710.0,732.0,662.0,634.0,804.0,758.0,648.0,628.0,688.0,646.0,596.0,646.0,734.0,672.0,632.0,748.0,778.0,688.0,620.0,668.0,698.0,666.0,668.0,694.0,638.0,584.0,592.0,628.0,586.0,564.0,622.0,628.0,596.0,566.0,632.0,624.0,584.0,570.0,650.0,630.0,580.0,562.0,600.0,604.0,568.0,544.0,574.0,590.0,554.0,536.0,552.0,572.0,564.0,572.0,700.0,670.0,632.0,610.0,678.0,716.0,648.0,584.0,586.0,618.0,584.0,544.0,546.0,618.0,600.0,566.0,564.0,636.0,642.0,592.0,558.0,628.0,618.0,576.0,556.0,574.0,588.0,556.0,542.0,546.0,554.0,536.0,522.0,552.0,570.0,546.0,530.0,560.0,592.0,576.0,550.0,546.0,574.0,570.0,550.0,532.0,512.0,528.0,584.0,570.0,544.0,530.0,514.0,566.0,662.0,634.0,578.0,592.0,600.0,622.0,580.0,572.0,548.0,560.0,570.0,572.0,560.0,536.0,526.0,556.0,564.0,538.0,516.0,544.0,608.0,580.0,564.0,678.0,722.0,642.0,598.0,710.0,676.0,602.0,584.0,636.0,604.0,568.0,610.0,654.0,630.0,586.0,590.0,770.0,708.0,650.0,638.0,644.0,602.0,616.0,828.0,858.0,816.0,712.0,740.0,786.0,690.0,626.0,630.0,596.0,558.0,664.0,640.0,704.0,728.0,682.0,630.0,666.0,704.0,638.0,606.0,642.0,666.0,618.0,632.0,668.0,634.0,622.0,688.0,668.0,626.0,722.0,758.0,684.0,614.0,596.0,672.0,664.0,642.0,644.0,742.0,752.0,688.0,692.0,696.0,634.0,644.0,662.0,618.0,590.0,654.0,614.0,570.0,574.0,608.0,586.0,618.0,708.0,678.0,660.0,742.0,682.0,628.0,726.0,750.0,666.0,706.0,668.0,640.0,692.0,704.0,658.0,664.0,658.0,620.0,596.0,650.0,666.0,618.0,594.0,624.0,608.0,588.0,616.0,698.0,706.0,652.0,624.0,686.0,724.0,678.0,680.0,714.0,680.0,632.0,660.0,706.0,660.0,622.0,662.0,640.0,596.0,586.0,578.0,550.0,548.0,560.0,646.0,614.0,588.0,666.0,742.0,678.0,624.0,634.0,648.0,602.0,578.0,654.0,646.0,632.0,718.0,712.0,702.0,754.0,656.0,624.0,620.0,584.0,574.0,632.0,648.0,608.0,620.0,692.0,678.0,628.0,630.0,702.0,700.0,640.0,608.0,664.0,652.0,604.0,612.0,660.0,632.0,612.0,608.0,610.0,578.0,540.0,532.0,534.0,556.0,574.0,546.0,586.0,584.0,570.0,548.0,542.0,552.0,550.0,528.0,522.0,582.0,,,,,,,,,,,,,,,,,,,,,,,,,,,,,,,,,,,,,,,,,,,,,,,,,,,,,,,,,,,,,,,,,,,,,,,,,,,,,,,,,,,,,,,,,,,,,,,,,,,,,,,,,,,,,,,,,,,,,,,,,,,,,,,,,,,,,,,,,,,,,,,,,,,,,,,,,,,,,,,,,,,,,,,,,,,,,,,,,,,,,,,,,,,,,,,,,,,,,,,,,,,,,,,,,,,,,,,,,,,,,
sub_23,normal,640.0,652.0,698.0,748.0,750.0,742.0,782.0,742.0,716.0,692.0,644.0,650.0,670.0,682.0,716.0,704.0,714.0,720.0,738.0,736.0,712.0,714.0,700.0,696.0,722.0,730.0,710.0,702.0,712.0,732.0,724.0,694.0,706.0,696.0,712.0,744.0,712.0,720.0,740.0,680.0,700.0,726.0,668.0,674.0,718.0,702.0,672.0,684.0,616.0,618.0,626.0,602.0,610.0,648.0,682.0,704.0,736.0,754.0,762.0,744.0,788.0,740.0,742.0,720.0,726.0,758.0,768.0,756.0,786.0,814.0,760.0,780.0,792.0,768.0,722.0,726.0,752.0,772.0,766.0,786.0,802.0,768.0,770.0,788.0,734.0,730.0,750.0,734.0,690.0,684.0,708.0,740.0,704.0,716.0,748.0,718.0,698.0,724.0,734.0,700.0,660.0,632.0,646.0,680.0,758.0,810.0,822.0,842.0,786.0,752.0,746.0,748.0,716.0,736.0,770.0,774.0,764.0,794.0,812.0,794.0,820.0,830.0,774.0,778.0,760.0,724.0,772.0,752.0,726.0,730.0,708.0,728.0,778.0,756.0,788.0,794.0,766.0,794.0,800.0,744.0,732.0,750.0,706.0,730.0,766.0,736.0,784.0,816.0,780.0,802.0,746.0,728.0,726.0,696.0,748.0,696.0,736.0,720.0,736.0,712.0,706.0,708.0,664.0,688.0,702.0,690.0,712.0,726.0,696.0,724.0,744.0,700.0,738.0,762.0,736.0,790.0,806.0,752.0,768.0,774.0,736.0,766.0,784.0,758.0,800.0,780.0,736.0,786.0,802.0,760.0,764.0,754.0,724.0,740.0,750.0,712.0,732.0,782.0,754.0,784.0,804.0,738.0,746.0,762.0,740.0,736.0,780.0,748.0,742.0,760.0,742.0,720.0,772.0,766.0,716.0,762.0,786.0,760.0,786.0,792.0,754.0,760.0,752.0,734.0,772.0,776.0,746.0,766.0,782.0,738.0,744.0,774.0,746.0,750.0,762.0,722.0,700.0,710.0,704.0,678.0,696.0,732.0,722.0,750.0,798.0,758.0,730.0,768.0,734.0,600.0,806.0,750.0,668.0,694.0,692.0,714.0,794.0,790.0,822.0,846.0,810.0,828.0,846.0,812.0,854.0,846.0,798.0,766.0,768.0,738.0,772.0,812.0,804.0,832.0,852.0,820.0,808.0,820.0,762.0,726.0,758.0,750.0,730.0,784.0,794.0,772.0,834.0,832.0,768.0,798.0,804.0,756.0,786.0,800.0,754.0,764.0,794.0,758.0,790.0,784.0,706.0,692.0,678.0,658.0,662.0,674.0,722.0,770.0,734.0,764.0,746.0,712.0,668.0,680.0,662.0,674.0,670.0,692.0,678.0,680.0,726.0,720.0,712.0,738.0,740.0,782.0,728.0,750.0,768.0,742.0,706.0,656.0,644.0,630.0,604.0,622.0,614.0,608.0,644.0,642.0,668.0,682.0,716.0,692.0,716.0,746.0,726.0,730.0,774.0,762.0,752.0,740.0,722.0,716.0,720.0,716.0,784.0,832.0,788.0,796.0,806.0,764.0,754.0,768.0,742.0,740.0,780.0,774.0,740.0,784.0,810.0,776.0,794.0,808.0,748.0,766.0,794.0,784.0,818.0,810.0,788.0,742.0,726.0,694.0,706.0,736.0,728.0,802.0,842.0,818.0,850.0,840.0,796.0,774.0,762.0,702.0,716.0,736.0,728.0,744.0,772.0,746.0,,,,,,,,,,,,,,,,,,,,,,,,,,,,,,,,,,,,,,,,,,,,,,,,,,,,,,,,,,,,,,,,,,,,,,,,,,,,,,,,,,,,,,,,,,,,,,,,,,,,,,,,,,,,,,,,,,,,,,,,,,,,,,,,,,,,,,,,,,,,,,,,,,,,,,,,,,,,,,,,,,,,,,,,,,,,,,,,,,,,,,,,,,,,,,,,,,,,,,,,,,,,,,,,,,,,,,,,,,,,,,,,,,,,,,,,,,,,,,,,,,,,,,,,,,,,,,,,,,,,,,,,,,,,,,,,,,,,,,,,
sub_24,normal,694.0,702.0,692.0,722.0,678.0,690.0,660.0,678.0,664.0,668.0,672.0,654.0,668.0,680.0,706.0,720.0,748.0,784.0,786.0,776.0,756.0,734.0,706.0,710.0,724.0,720.0,728.0,736.0,722.0,726.0,760.0,780.0,736.0,744.0,756.0,750.0,714.0,724.0,734.0,706.0,716.0,752.0,790.0,788.0,802.0,812.0,796.0,792.0,810.0,802.0,770.0,772.0,768.0,748.0,756.0,762.0,734.0,714.0,720.0,702.0,698.0,712.0,706.0,772.0,830.0,816.0,808.0,810.0,796.0,754.0,722.0,710.0,700.0,694.0,714.0,730.0,724.0,704.0,716.0,724.0,714.0,744.0,812.0,818.0,798.0,834.0,856.0,828.0,836.0,822.0,776.0,744.0,740.0,728.0,744.0,776.0,782.0,752.0,776.0,798.0,778.0,780.0,808.0,788.0,762.0,758.0,764.0,752.0,746.0,768.0,774.0,744.0,750.0,778.0,768.0,742.0,746.0,758.0,734.0,748.0,778.0,756.0,752.0,762.0,754.0,744.0,770.0,792.0,768.0,750.0,746.0,722.0,732.0,764.0,752.0,728.0,752.0,758.0,740.0,750.0,768.0,774.0,748.0,754.0,764.0,736.0,722.0,728.0,730.0,724.0,740.0,776.0,794.0,772.0,734.0,742.0,726.0,718.0,734.0,716.0,692.0,710.0,654.0,664.0,692.0,750.0,778.0,790.0,738.0,722.0,740.0,838.0,818.0,754.0,694.0,674.0,650.0,634.0,630.0,634.0,646.0,690.0,718.0,748.0,754.0,760.0,740.0,744.0,762.0,740.0,720.0,728.0,732.0,730.0,776.0,800.0,814.0,824.0,784.0,792.0,826.0,840.0,830.0,802.0,810.0,780.0,738.0,712.0,720.0,750.0,776.0,780.0,750.0,782.0,826.0,776.0,754.0,748.0,752.0,736.0,732.0,736.0,728.0,704.0,692.0,716.0,714.0,732.0,720.0,736.0,760.0,772.0,778.0,732.0,716.0,744.0,782.0,798.0,788.0,794.0,792.0,778.0,758.0,766.0,782.0,772.0,786.0,814.0,802.0,764.0,738.0,750.0,752.0,736.0,702.0,706.0,726.0,756.0,748.0,784.0,800.0,772.0,736.0,700.0,688.0,706.0,698.0,706.0,742.0,784.0,800.0,832.0,848.0,820.0,830.0,806.0,768.0,734.0,706.0,714.0,748.0,678.0,700.0,698.0,664.0,662.0,652.0,668.0,702.0,730.0,784.0,832.0,810.0,794.0,780.0,786.0,830.0,866.0,848.0,786.0,758.0,762.0,804.0,860.0,864.0,804.0,798.0,780.0,726.0,678.0,654.0,660.0,682.0,750.0,852.0,880.0,868.0,866.0,784.0,748.0,728.0,726.0,792.0,802.0,788.0,750.0,742.0,710.0,698.0,716.0,750.0,746.0,742.0,772.0,812.0,788.0,740.0,710.0,722.0,752.0,772.0,760.0,758.0,768.0,788.0,792.0,758.0,754.0,774.0,798.0,792.0,790.0,816.0,852.0,850.0,832.0,772.0,720.0,712.0,720.0,728.0,778.0,810.0,848.0,840.0,798.0,776.0,738.0,726.0,760.0,780.0,772.0,750.0,776.0,808.0,834.0,802.0,746.0,728.0,730.0,712.0,736.0,784.0,790.0,760.0,772.0,816.0,832.0,824.0,,,,,,,,,,,,,,,,,,,,,,,,,,,,,,,,,,,,,,,,,,,,,,,,,,,,,,,,,,,,,,,,,,,,,,,,,,,,,,,,,,,,,,,,,,,,,,,,,,,,,,,,,,,,,,,,,,,,,,,,,,,,,,,,,,,,,,,,,,,,,,,,,,,,,,,,,,,,,,,,,,,,,,,,,,,,,,,,,,,,,,,,,,,,,,,,,,,,,,,,,,,,,,,,,,,,,,,,,,,,,,,,,,,,,,,,,,,,,,,,,,,,,,,,,,,,,,,,,,,,,,,,,,,,,,,,,,,,,,,,,,,,,,,,,,,,,
sub_25,normal,692.0,722.0,694.0,662.0,676.0,686.0,654.0,638.0,648.0,622.0,596.0,632.0,612.0,610.0,646.0,672.0,634.0,616.0,644.0,614.0,624.0,634.0,606.0,624.0,662.0,632.0,612.0,624.0,594.0,608.0,622.0,594.0,616.0,638.0,610.0,614.0,584.0,604.0,634.0,608.0,626.0,610.0,614.0,646.0,616.0,606.0,624.0,634.0,602.0,620.0,650.0,608.0,616.0,648.0,612.0,604.0,644.0,616.0,612.0,646.0,628.0,646.0,658.0,618.0,616.0,630.0,626.0,602.0,634.0,642.0,606.0,626.0,624.0,604.0,626.0,634.0,606.0,616.0,642.0,620.0,616.0,640.0,616.0,620.0,552.0,564.0,558.0,564.0,550.0,592.0,542.0,564.0,598.0,612.0,540.0,560.0,596.0,570.0,560.0,582.0,610.0,602.0,620.0,668.0,654.0,648.0,684.0,638.0,614.0,624.0,660.0,606.0,618.0,634.0,614.0,640.0,680.0,702.0,648.0,676.0,680.0,652.0,666.0,694.0,690.0,638.0,650.0,704.0,710.0,690.0,702.0,688.0,650.0,658.0,682.0,652.0,614.0,624.0,604.0,596.0,612.0,618.0,598.0,600.0,616.0,600.0,590.0,600.0,598.0,576.0,594.0,582.0,584.0,600.0,620.0,600.0,630.0,654.0,642.0,650.0,686.0,690.0,632.0,636.0,660.0,620.0,646.0,624.0,654.0,632.0,616.0,594.0,554.0,544.0,542.0,550.0,568.0,566.0,568.0,546.0,538.0,578.0,688.0,666.0,670.0,738.0,730.0,656.0,676.0,688.0,620.0,618.0,636.0,612.0,628.0,696.0,674.0,678.0,620.0,630.0,658.0,642.0,612.0,624.0,618.0,600.0,592.0,602.0,628.0,606.0,616.0,640.0,638.0,646.0,668.0,666.0,614.0,626.0,614.0,602.0,596.0,644.0,598.0,610.0,628.0,610.0,598.0,632.0,658.0,618.0,644.0,670.0,648.0,632.0,648.0,668.0,650.0,692.0,698.0,636.0,662.0,618.0,612.0,648.0,664.0,640.0,684.0,710.0,638.0,684.0,698.0,654.0,636.0,640.0,656.0,648.0,668.0,734.0,708.0,716.0,688.0,664.0,704.0,708.0,664.0,630.0,616.0,586.0,594.0,584.0,604.0,586.0,674.0,684.0,636.0,664.0,686.0,696.0,642.0,594.0,724.0,662.0,632.0,638.0,636.0,654.0,798.0,686.0,666.0,704.0,732.0,696.0,708.0,674.0,636.0,604.0,612.0,626.0,638.0,744.0,848.0,748.0,758.0,776.0,690.0,688.0,660.0,642.0,666.0,664.0,624.0,662.0,688.0,656.0,646.0,678.0,680.0,624.0,646.0,630.0,610.0,608.0,620.0,610.0,600.0,608.0,616.0,594.0,604.0,616.0,604.0,598.0,618.0,656.0,622.0,598.0,634.0,628.0,612.0,636.0,662.0,624.0,676.0,680.0,630.0,618.0,624.0,604.0,576.0,590.0,606.0,612.0,596.0,624.0,668.0,640.0,656.0,696.0,670.0,666.0,614.0,598.0,604.0,632.0,640.0,618.0,636.0,666.0,628.0,648.0,674.0,672.0,622.0,644.0,660.0,640.0,636.0,606.0,612.0,622.0,616.0,654.0,642.0,676.0,756.0,692.0,698.0,684.0,652.0,672.0,690.0,648.0,618.0,626.0,640.0,608.0,630.0,636.0,600.0,604.0,624.0,610.0,600.0,612.0,610.0,570.0,590.0,574.0,570.0,602.0,598.0,566.0,596.0,622.0,582.0,596.0,604.0,620.0,598.0,600.0,620.0,610.0,582.0,610.0,630.0,602.0,614.0,642.0,630.0,624.0,640.0,666.0,616.0,614.0,606.0,602.0,590.0,614.0,642.0,622.0,640.0,668.0,624.0,630.0,626.0,620.0,584.0,594.0,592.0,608.0,592.0,624.0,634.0,600.0,614.0,662.0,678.0,666.0,726.0,676.0,686.0,664.0,644.0,610.0,612.0,608.0,588.0,580.0,594.0,618.0,622.0,604.0,,,,,,,,,,,,,,,,,,,,,,,,,,,,,,,,,,,,,,,,,,,,,,,,,,,,,,,,,,,,,,,,,,,,,,,,,,,,,,,,,,,,,,,,,,,,,,,,,,,,,,,,,,,,,,,,,,,,,,,,,,,,,,,,,,,,,,,,,,,,,,,,,,,,,,,,,,,,,,,,,,,,,,,,,,,,,,,,,,,,,,,,,,,,,,,,,,,,,,,,,,,,,,,,,,
sub_26,normal,736.0,790.0,694.0,642.0,680.0,726.0,776.0,794.0,790.0,756.0,708.0,678.0,660.0,626.0,612.0,628.0,662.0,732.0,800.0,848.0,788.0,770.0,772.0,788.0,778.0,710.0,698.0,714.0,764.0,820.0,816.0,756.0,770.0,804.0,826.0,818.0,786.0,730.0,724.0,670.0,634.0,648.0,716.0,806.0,844.0,818.0,742.0,752.0,792.0,748.0,722.0,772.0,710.0,658.0,650.0,676.0,714.0,662.0,628.0,658.0,714.0,762.0,712.0,680.0,706.0,726.0,750.0,708.0,738.0,746.0,670.0,678.0,698.0,716.0,744.0,748.0,744.0,712.0,666.0,648.0,620.0,586.0,588.0,608.0,666.0,752.0,708.0,694.0,742.0,794.0,814.0,742.0,712.0,728.0,754.0,774.0,752.0,724.0,680.0,664.0,662.0,620.0,592.0,598.0,624.0,712.0,808.0,752.0,706.0,710.0,686.0,694.0,752.0,770.0,718.0,644.0,608.0,614.0,654.0,738.0,800.0,824.0,822.0,788.0,708.0,646.0,624.0,670.0,754.0,790.0,782.0,738.0,692.0,674.0,678.0,658.0,706.0,710.0,740.0,702.0,682.0,722.0,784.0,830.0,796.0,746.0,744.0,758.0,772.0,774.0,722.0,688.0,686.0,654.0,636.0,644.0,674.0,718.0,760.0,706.0,696.0,714.0,734.0,776.0,784.0,726.0,686.0,630.0,644.0,682.0,730.0,762.0,780.0,768.0,726.0,696.0,694.0,718.0,722.0,682.0,668.0,686.0,718.0,774.0,808.0,764.0,710.0,712.0,716.0,754.0,776.0,762.0,716.0,680.0,664.0,624.0,598.0,600.0,618.0,668.0,704.0,684.0,702.0,752.0,774.0,728.0,700.0,704.0,732.0,748.0,690.0,668.0,678.0,714.0,754.0,760.0,724.0,728.0,742.0,756.0,728.0,694.0,720.0,742.0,744.0,698.0,682.0,698.0,732.0,768.0,782.0,760.0,736.0,688.0,664.0,616.0,584.0,582.0,586.0,630.0,744.0,746.0,694.0,720.0,772.0,820.0,840.0,804.0,748.0,754.0,756.0,754.0,716.0,664.0,650.0,646.0,662.0,690.0,708.0,672.0,668.0,648.0,616.0,610.0,612.0,630.0,684.0,766.0,716.0,728.0,768.0,786.0,796.0,752.0,692.0,672.0,666.0,682.0,712.0,700.0,662.0,700.0,750.0,790.0,734.0,682.0,710.0,758.0,754.0,702.0,730.0,752.0,744.0,690.0,692.0,708.0,734.0,706.0,654.0,616.0,598.0,656.0,784.0,828.0,804.0,764.0,710.0,684.0,666.0,674.0,688.0,700.0,664.0,654.0,688.0,734.0,798.0,800.0,726.0,712.0,722.0,742.0,766.0,750.0,732.0,754.0,772.0,776.0,740.0,720.0,732.0,746.0,686.0,638.0,632.0,626.0,632.0,628.0,646.0,676.0,688.0,692.0,656.0,622.0,644.0,694.0,762.0,802.0,756.0,742.0,770.0,782.0,778.0,772.0,714.0,686.0,678.0,686.0,708.0,700.0,676.0,680.0,710.0,706.0,654.0,636.0,640.0,656.0,704.0,750.0,686.0,658.0,662.0,642.0,648.0,674.0,690.0,654.0,624.0,626.0,638.0,678.0,716.0,686.0,684.0,726.0,772.0,802.0,808.0,802.0,776.0,754.0,702.0,668.0,640.0,608.0,586.0,592.0,614.0,710.0,808.0,756.0,762.0,804.0,816.0,728.0,726.0,742.0,744.0,748.0,716.0,656.0,628.0,624.0,634.0,668.0,712.0,,,,,,,,,,,,,,,,,,,,,,,,,,,,,,,,,,,,,,,,,,,,,,,,,,,,,,,,,,,,,,,,,,,,,,,,,,,,,,,,,,,,,,,,,,,,,,,,,,,,,,,,,,,,,,,,,,,,,,,,,,,,,,,,,,,,,,,,,,,,,,,,,,,,,,,,,,,,,,,,,,,,,,,,,,,,,,,,,,,,,,,,,,,,,,,,,,,,,,,,,,,,,,,,,,,,,,,,,,,,,,,,,,,,,,,,,,,,,,,,,,,,,,,,,,,,,,,,,,,,,,,,,
sub_27,normal,730.0,800.0,826.0,778.0,766.0,824.0,802.0,612.0,368.0,586.0,792.0,806.0,804.0,750.0,762.0,788.0,812.0,822.0,818.0,822.0,804.0,816.0,830.0,802.0,776.0,802.0,796.0,824.0,816.0,832.0,842.0,822.0,808.0,798.0,796.0,756.0,720.0,708.0,680.0,690.0,750.0,740.0,760.0,810.0,834.0,800.0,796.0,814.0,796.0,810.0,824.0,796.0,814.0,816.0,796.0,818.0,830.0,802.0,812.0,832.0,840.0,812.0,828.0,826.0,774.0,748.0,818.0,726.0,586.0,352.0,648.0,780.0,692.0,416.0,520.0,794.0,796.0,794.0,790.0,764.0,802.0,804.0,788.0,794.0,816.0,824.0,792.0,812.0,824.0,804.0,802.0,822.0,808.0,802.0,810.0,780.0,782.0,804.0,836.0,760.0,788.0,812.0,762.0,776.0,794.0,758.0,756.0,782.0,794.0,786.0,774.0,778.0,742.0,740.0,770.0,758.0,746.0,774.0,760.0,776.0,736.0,760.0,780.0,790.0,772.0,766.0,784.0,780.0,756.0,754.0,778.0,782.0,744.0,774.0,786.0,748.0,770.0,792.0,798.0,756.0,750.0,742.0,722.0,738.0,758.0,734.0,752.0,782.0,790.0,766.0,790.0,830.0,742.0,776.0,784.0,788.0,742.0,686.0,700.0,740.0,732.0,706.0,726.0,598.0,358.0,456.0,690.0,758.0,774.0,796.0,822.0,818.0,814.0,848.0,870.0,880.0,884.0,876.0,862.0,838.0,814.0,816.0,814.0,806.0,794.0,758.0,770.0,790.0,816.0,742.0,720.0,744.0,738.0,740.0,742.0,740.0,756.0,762.0,752.0,758.0,784.0,786.0,798.0,806.0,798.0,800.0,808.0,788.0,688.0,870.0,810.0,782.0,786.0,798.0,810.0,794.0,812.0,822.0,802.0,794.0,780.0,740.0,756.0,760.0,776.0,748.0,760.0,766.0,768.0,764.0,782.0,794.0,774.0,784.0,792.0,776.0,772.0,790.0,788.0,772.0,762.0,786.0,788.0,760.0,768.0,784.0,790.0,766.0,788.0,790.0,782.0,770.0,792.0,786.0,776.0,788.0,792.0,754.0,766.0,788.0,772.0,770.0,742.0,728.0,754.0,750.0,730.0,760.0,776.0,760.0,762.0,792.0,804.0,814.0,774.0,796.0,802.0,780.0,704.0,746.0,750.0,778.0,790.0,800.0,774.0,764.0,724.0,696.0,686.0,656.0,662.0,712.0,756.0,784.0,770.0,806.0,816.0,820.0,800.0,802.0,810.0,814.0,772.0,776.0,788.0,790.0,794.0,780.0,796.0,798.0,772.0,788.0,780.0,784.0,758.0,736.0,756.0,740.0,712.0,764.0,782.0,774.0,754.0,750.0,776.0,792.0,798.0,780.0,804.0,810.0,798.0,782.0,790.0,788.0,774.0,790.0,802.0,794.0,818.0,798.0,812.0,826.0,814.0,802.0,818.0,820.0,782.0,778.0,792.0,774.0,798.0,802.0,772.0,766.0,784.0,788.0,760.0,776.0,784.0,764.0,754.0,780.0,782.0,772.0,788.0,810.0,774.0,770.0,788.0,792.0,774.0,802.0,808.0,792.0,786.0,808.0,812.0,762.0,764.0,790.0,794.0,,,,,,,,,,,,,,,,,,,,,,,,,,,,,,,,,,,,,,,,,,,,,,,,,,,,,,,,,,,,,,,,,,,,,,,,,,,,,,,,,,,,,,,,,,,,,,,,,,,,,,,,,,,,,,,,,,,,,,,,,,,,,,,,,,,,,,,,,,,,,,,,,,,,,,,,,,,,,,,,,,,,,,,,,,,,,,,,,,,,,,,,,,,,,,,,,,,,,,,,,,,,,,,,,,,,,,,,,,,,,,,,,,,,,,,,,,,,,,,,,,,,,,,,,,,,,,,,,,,,,,,,,,,,,,,,,,,,,,,,,,,,,,,,,,,,,,,,,,,,,
sub_1,stress,736.0,738.0,728.0,698.0,684.0,704.0,710.0,722.0,666.0,656.0,690.0,724.0,744.0,688.0,666.0,684.0,708.0,702.0,674.0,670.0,674.0,710.0,686.0,682.0,692.0,706.0,708.0,692.0,716.0,742.0,722.0,698.0,652.0,648.0,662.0,696.0,734.0,694.0,702.0,726.0,756.0,712.0,680.0,670.0,690.0,666.0,684.0,736.0,742.0,726.0,674.0,664.0,678.0,692.0,684.0,666.0,654.0,676.0,686.0,672.0,656.0,666.0,702.0,734.0,784.0,608.0,480.0,298.0,472.0,666.0,662.0,678.0,672.0,690.0,646.0,636.0,660.0,732.0,764.0,794.0,776.0,736.0,714.0,662.0,654.0,646.0,662.0,696.0,652.0,648.0,662.0,676.0,692.0,690.0,660.0,656.0,670.0,700.0,710.0,698.0,660.0,658.0,674.0,680.0,688.0,704.0,686.0,688.0,704.0,734.0,738.0,680.0,674.0,696.0,728.0,734.0,674.0,660.0,676.0,690.0,712.0,678.0,692.0,694.0,704.0,690.0,660.0,652.0,660.0,680.0,694.0,718.0,678.0,664.0,686.0,690.0,700.0,688.0,656.0,654.0,670.0,672.0,668.0,640.0,638.0,636.0,644.0,648.0,634.0,646.0,658.0,680.0,688.0,674.0,684.0,674.0,662.0,624.0,616.0,620.0,670.0,678.0,662.0,666.0,682.0,694.0,680.0,640.0,642.0,650.0,666.0,680.0,646.0,666.0,704.0,670.0,664.0,666.0,682.0,704.0,684.0,656.0,662.0,694.0,708.0,722.0,714.0,682.0,686.0,696.0,660.0,672.0,670.0,684.0,688.0,682.0,650.0,664.0,690.0,708.0,640.0,386.0,302.0,614.0,626.0,608.0,630.0,622.0,620.0,628.0,638.0,646.0,658.0,646.0,624.0,636.0,634.0,666.0,682.0,684.0,654.0,650.0,656.0,686.0,664.0,398.0,310.0,622.0,608.0,636.0,644.0,666.0,644.0,652.0,662.0,670.0,690.0,684.0,680.0,634.0,650.0,668.0,676.0,710.0,678.0,650.0,656.0,664.0,676.0,662.0,650.0,646.0,654.0,674.0,646.0,652.0,654.0,666.0,628.0,634.0,662.0,696.0,700.0,686.0,640.0,634.0,636.0,644.0,642.0,654.0,666.0,660.0,656.0,632.0,652.0,670.0,678.0,672.0,642.0,640.0,652.0,654.0,660.0,682.0,662.0,632.0,652.0,668.0,688.0,664.0,648.0,650.0,670.0,674.0,658.0,644.0,636.0,646.0,650.0,662.0,676.0,652.0,650.0,662.0,668.0,634.0,632.0,620.0,598.0,646.0,716.0,678.0,672.0,710.0,718.0,704.0,706.0,656.0,650.0,642.0,644.0,666.0,660.0,646.0,668.0,688.0,734.0,698.0,690.0,638.0,648.0,650.0,664.0,638.0,642.0,632.0,646.0,674.0,690.0,676.0,686.0,694.0,612.0,660.0,606.0,652.0,642.0,644.0,660.0,672.0,670.0,660.0,662.0,680.0,698.0,712.0,710.0,660.0,648.0,654.0,674.0,624.0,674.0,640.0,660.0,716.0,738.0,736.0,732.0,668.0,674.0,686.0,694.0,704.0,688.0,650.0,668.0,656.0,668.0,688.0,678.0,658.0,670.0,692.0,696.0,698.0,674.0,666.0,696.0,698.0,702.0,640.0,648.0,662.0,664.0,652.0,628.0,640.0,652.0,666.0,694.0,666.0,650.0,656.0,662.0,664.0,616.0,614.0,604.0,626.0,656.0,682.0,692.0,690.0,668.0,660.0,662.0,692.0,652.0,634.0,640.0,658.0,680.0,676.0,646.0,650.0,660.0,622.0,738.0,650.0,660.0,654.0,672.0,658.0,642.0,650.0,656.0,682.0,678.0,654.0,666.0,672.0,686.0,688.0,642.0,620.0,636.0,642.0,678.0,684.0,698.0,716.0,704.0,718.0,690.0,662.0,646.0,636.0,598.0,612.0,608.0,644.0,660.0,632.0,636.0,654.0,686.0,642.0,630.0,644.0,652.0,678.0,616.0,632.0,612.0,594.0,608.0,666.0,722.0,682.0,656.0,664.0,698.0,712.0,646.0,660.0,666.0,676.0,660.0,646.0,654.0,692.0,718.0,732.0,730.0,668.0,660.0,674.0,698.0,724.0,684.0,688.0,700.0,722.0,718.0,710.0,666.0,672.0,670.0,678.0,686.0,694.0,668.0,658.0,676.0,700.0,674.0,650.0,672.0,708.0,726.0,696.0,666.0,688.0,704.0,728.0,746.0,692.0,696.0,668.0,670.0,686.0,,,,,,,,,,,,,,,,,,,,,,,,,,,,,,,,,,,,,,,,,,,,,,,,,,,,,,,,,,,,,,,,,,,,,,,,,,,,,,,,,,,,,,,,,,,,,,,,,,,,,,,,,,,,,,,,,,,,,,,,,,,,,,,,,,,,,,,,,,,,,,,,,,,,,,
sub_2,stress,722.0,684.0,660.0,666.0,670.0,666.0,668.0,644.0,668.0,678.0,654.0,656.0,688.0,676.0,648.0,674.0,658.0,676.0,624.0,628.0,682.0,658.0,716.0,730.0,576.0,788.0,472.0,284.0,522.0,552.0,598.0,552.0,498.0,298.0,252.0,338.0,490.0,552.0,588.0,650.0,682.0,778.0,692.0,696.0,418.0,252.0,510.0,582.0,612.0,510.0,578.0,584.0,520.0,528.0,316.0,274.0,584.0,574.0,532.0,542.0,514.0,524.0,558.0,526.0,546.0,554.0,564.0,596.0,648.0,726.0,740.0,792.0,796.0,808.0,726.0,682.0,672.0,674.0,638.0,634.0,630.0,634.0,566.0,612.0,606.0,634.0,686.0,676.0,710.0,714.0,688.0,634.0,620.0,626.0,664.0,662.0,670.0,634.0,662.0,636.0,646.0,714.0,730.0,742.0,728.0,714.0,632.0,634.0,642.0,614.0,668.0,700.0,718.0,736.0,740.0,716.0,712.0,720.0,670.0,668.0,622.0,652.0,630.0,656.0,710.0,642.0,698.0,674.0,722.0,656.0,628.0,644.0,626.0,640.0,676.0,704.0,658.0,670.0,664.0,680.0,630.0,668.0,646.0,686.0,698.0,642.0,636.0,642.0,630.0,632.0,640.0,674.0,640.0,638.0,660.0,692.0,638.0,660.0,642.0,622.0,638.0,666.0,678.0,672.0,682.0,640.0,622.0,620.0,636.0,646.0,642.0,630.0,626.0,616.0,612.0,596.0,598.0,610.0,616.0,640.0,648.0,636.0,640.0,626.0,638.0,648.0,666.0,626.0,616.0,634.0,610.0,620.0,664.0,632.0,616.0,624.0,644.0,620.0,604.0,610.0,634.0,654.0,640.0,622.0,634.0,664.0,684.0,664.0,634.0,672.0,686.0,612.0,596.0,610.0,640.0,660.0,680.0,698.0,702.0,664.0,692.0,640.0,674.0,684.0,682.0,678.0,664.0,646.0,616.0,626.0,642.0,644.0,632.0,670.0,686.0,706.0,674.0,682.0,702.0,634.0,640.0,658.0,698.0,634.0,670.0,660.0,680.0,658.0,614.0,606.0,610.0,608.0,688.0,602.0,606.0,630.0,672.0,628.0,686.0,660.0,626.0,696.0,632.0,680.0,660.0,626.0,624.0,616.0,610.0,632.0,694.0,632.0,676.0,698.0,710.0,702.0,686.0,654.0,612.0,600.0,602.0,606.0,578.0,558.0,586.0,646.0,690.0,670.0,722.0,738.0,766.0,708.0,676.0,694.0,686.0,608.0,612.0,626.0,656.0,684.0,730.0,674.0,658.0,718.0,666.0,642.0,632.0,624.0,656.0,730.0,734.0,738.0,676.0,664.0,678.0,670.0,666.0,658.0,678.0,690.0,734.0,724.0,756.0,746.0,752.0,698.0,692.0,682.0,700.0,632.0,638.0,664.0,686.0,698.0,660.0,664.0,658.0,706.0,678.0,688.0,634.0,630.0,644.0,648.0,672.0,684.0,704.0,628.0,614.0,638.0,642.0,674.0,704.0,692.0,646.0,684.0,638.0,642.0,628.0,644.0,622.0,610.0,620.0,624.0,664.0,640.0,678.0,668.0,670.0,660.0,676.0,660.0,670.0,664.0,596.0,604.0,600.0,594.0,628.0,614.0,636.0,650.0,696.0,674.0,704.0,702.0,654.0,622.0,614.0,608.0,616.0,608.0,622.0,654.0,688.0,662.0,646.0,672.0,690.0,644.0,696.0,628.0,622.0,626.0,674.0,610.0,622.0,646.0,682.0,632.0,662.0,678.0,682.0,632.0,620.0,630.0,624.0,642.0,660.0,678.0,672.0,694.0,678.0,634.0,628.0,632.0,634.0,640.0,620.0,684.0,692.0,694.0,632.0,638.0,678.0,660.0,698.0,632.0,620.0,626.0,628.0,640.0,616.0,632.0,664.0,686.0,692.0,704.0,716.0,702.0,662.0,634.0,616.0,592.0,598.0,592.0,612.0,654.0,662.0,696.0,732.0,748.0,714.0,694.0,710.0,702.0,666.0,640.0,652.0,692.0,688.0,684.0,644.0,684.0,706.0,634.0,618.0,622.0,670.0,646.0,668.0,696.0,722.0,714.0,720.0,656.0,690.0,662.0,690.0,662.0,622.0,636.0,676.0,708.0,680.0,704.0,714.0,670.0,710.0,722.0,716.0,662.0,634.0,642.0,610.0,612.0,664.0,660.0,694.0,722.0,696.0,718.0,746.0,766.0,716.0,706.0,666.0,696.0,712.0,664.0,702.0,634.0,636.0,690.0,700.0,656.0,684.0,714.0,628.0,622.0,654.0,700.0,708.0,670.0,714.0,702.0,656.0,702.0,660.0,692.0,666.0,690.0,638.0,666.0,658.0,696.0,722.0,740.0,736.0,664.0,652.0,658.0,666.0,644.0,670.0,662.0,636.0,652.0,730.0,,,,,,,,,,,,,,,,,,,,,,,,,,,,,,,,,,,,,,,,,,,,,,,,,,,,,,,,,,,,,,,,,,,,,,,,,,,,,,,,,,,,,,,,,,,,,,,,,,,,,,,,,,,,,,,,,,,,,,,,,,,
sub_3,stress,572.0,564.0,550.0,526.0,524.0,510.0,502.0,496.0,502.0,520.0,564.0,596.0,586.0,576.0,626.0,644.0,608.0,584.0,582.0,588.0,560.0,554.0,572.0,558.0,550.0,560.0,626.0,660.0,640.0,630.0,654.0,668.0,566.0,590.0,598.0,626.0,560.0,552.0,542.0,532.0,526.0,546.0,630.0,716.0,690.0,682.0,664.0,630.0,592.0,572.0,576.0,546.0,550.0,576.0,578.0,580.0,556.0,574.0,634.0,590.0,554.0,558.0,570.0,590.0,548.0,526.0,538.0,546.0,550.0,554.0,590.0,578.0,580.0,594.0,602.0,570.0,556.0,560.0,566.0,540.0,520.0,532.0,548.0,562.0,612.0,616.0,622.0,598.0,586.0,624.0,616.0,578.0,560.0,576.0,568.0,558.0,548.0,564.0,548.0,534.0,530.0,540.0,524.0,526.0,536.0,590.0,626.0,602.0,612.0,620.0,606.0,576.0,578.0,582.0,560.0,546.0,544.0,532.0,508.0,510.0,530.0,586.0,602.0,614.0,646.0,658.0,596.0,626.0,620.0,584.0,566.0,578.0,586.0,564.0,568.0,564.0,546.0,542.0,546.0,564.0,548.0,516.0,518.0,532.0,544.0,546.0,570.0,556.0,550.0,526.0,510.0,540.0,552.0,540.0,538.0,530.0,514.0,528.0,522.0,524.0,512.0,540.0,576.0,648.0,638.0,654.0,630.0,604.0,596.0,622.0,586.0,562.0,550.0,552.0,534.0,524.0,544.0,568.0,564.0,552.0,572.0,570.0,560.0,552.0,556.0,566.0,544.0,540.0,538.0,532.0,530.0,540.0,588.0,732.0,668.0,616.0,634.0,648.0,596.0,566.0,598.0,582.0,570.0,558.0,576.0,570.0,546.0,548.0,552.0,566.0,556.0,610.0,690.0,714.0,646.0,624.0,614.0,618.0,582.0,650.0,606.0,590.0,604.0,612.0,606.0,598.0,582.0,564.0,532.0,508.0,514.0,526.0,606.0,602.0,586.0,636.0,640.0,584.0,602.0,610.0,598.0,578.0,572.0,560.0,542.0,554.0,538.0,528.0,526.0,570.0,586.0,566.0,608.0,618.0,582.0,570.0,584.0,560.0,548.0,526.0,530.0,504.0,492.0,502.0,508.0,514.0,492.0,514.0,506.0,520.0,514.0,504.0,510.0,512.0,506.0,498.0,494.0,490.0,500.0,504.0,522.0,528.0,510.0,516.0,526.0,520.0,494.0,484.0,498.0,518.0,530.0,532.0,528.0,556.0,562.0,534.0,538.0,522.0,508.0,522.0,524.0,514.0,494.0,512.0,544.0,554.0,594.0,620.0,602.0,564.0,576.0,542.0,516.0,510.0,544.0,556.0,540.0,532.0,540.0,536.0,544.0,532.0,518.0,530.0,532.0,518.0,532.0,542.0,606.0,608.0,576.0,594.0,586.0,572.0,558.0,564.0,560.0,548.0,510.0,516.0,522.0,534.0,528.0,520.0,558.0,616.0,626.0,594.0,568.0,576.0,556.0,522.0,538.0,548.0,550.0,524.0,532.0,540.0,526.0,530.0,540.0,554.0,572.0,566.0,542.0,556.0,544.0,542.0,550.0,562.0,568.0,566.0,564.0,566.0,582.0,562.0,566.0,536.0,552.0,558.0,540.0,520.0,522.0,512.0,518.0,512.0,522.0,556.0,614.0,600.0,572.0,592.0,594.0,566.0,554.0,552.0,534.0,546.0,520.0,524.0,556.0,488.0,512.0,452.0,514.0,580.0,474.0,568.0,534.0,524.0,516.0,532.0,508.0,518.0,426.0,1110.0,668.0,400.0,576.0,590.0,664.0,734.0,654.0,570.0,664.0,528.0,558.0,520.0,1062.0,638.0,446.0,630.0,526.0,560.0,1082.0,650.0,416.0,514.0,540.0,708.0,798.0,734.0,694.0,638.0,598.0,596.0,562.0,546.0,570.0,572.0,566.0,560.0,606.0,630.0,640.0,642.0,678.0,702.0,724.0,716.0,664.0,666.0,674.0,680.0,666.0,672.0,674.0,706.0,700.0,678.0,706.0,708.0,642.0,620.0,628.0,640.0,674.0,602.0,584.0,562.0,586.0,632.0,602.0,600.0,608.0,592.0,578.0,594.0,588.0,578.0,590.0,562.0,576.0,558.0,572.0,622.0,630.0,576.0,532.0,562.0,526.0,538.0,546.0,556.0,530.0,544.0,552.0,526.0,584.0,548.0,,,,,,,,,,,,,,,,,,,,,,,,,,,,,,,,,,,,,,,,,,,,,,,,,,,,,,,,,,,,,,,,,,,,,,,,,,,,,,,,,,,,,,,,,,,,,,,,,,,,,,,,,,,,,,,,,,,,,,,,,,,,,,,,,,,,,,,,,,,,,,,,,,,,,,,,,,,,,,,,,,,,,,,,,,,,
sub_4,stress,398.0,252.0,426.0,636.0,640.0,634.0,662.0,632.0,622.0,628.0,624.0,632.0,658.0,648.0,634.0,630.0,626.0,630.0,646.0,610.0,644.0,658.0,664.0,672.0,670.0,652.0,664.0,674.0,680.0,660.0,668.0,654.0,656.0,668.0,664.0,672.0,682.0,662.0,660.0,622.0,658.0,616.0,634.0,646.0,654.0,650.0,636.0,642.0,648.0,632.0,634.0,674.0,672.0,670.0,668.0,662.0,652.0,642.0,638.0,652.0,658.0,652.0,656.0,658.0,670.0,668.0,664.0,658.0,654.0,638.0,632.0,614.0,622.0,644.0,646.0,666.0,684.0,708.0,684.0,692.0,704.0,718.0,710.0,712.0,700.0,672.0,666.0,662.0,654.0,632.0,634.0,662.0,678.0,676.0,688.0,676.0,682.0,684.0,690.0,670.0,696.0,684.0,682.0,656.0,648.0,666.0,656.0,664.0,660.0,690.0,682.0,688.0,684.0,660.0,662.0,676.0,698.0,660.0,672.0,688.0,680.0,686.0,676.0,686.0,674.0,676.0,680.0,684.0,678.0,684.0,660.0,670.0,668.0,654.0,662.0,656.0,664.0,668.0,662.0,676.0,662.0,648.0,682.0,680.0,688.0,696.0,682.0,668.0,630.0,632.0,678.0,642.0,634.0,664.0,642.0,646.0,664.0,676.0,692.0,710.0,700.0,666.0,688.0,702.0,688.0,654.0,662.0,672.0,682.0,688.0,672.0,680.0,674.0,682.0,674.0,684.0,690.0,676.0,658.0,626.0,648.0,652.0,636.0,642.0,646.0,648.0,614.0,608.0,628.0,616.0,662.0,586.0,606.0,588.0,590.0,604.0,602.0,608.0,618.0,628.0,666.0,672.0,652.0,664.0,666.0,650.0,628.0,648.0,636.0,638.0,644.0,638.0,626.0,630.0,642.0,660.0,658.0,646.0,624.0,654.0,656.0,654.0,646.0,616.0,628.0,652.0,648.0,650.0,644.0,620.0,642.0,654.0,640.0,656.0,664.0,686.0,670.0,708.0,668.0,686.0,690.0,674.0,684.0,688.0,674.0,670.0,662.0,666.0,682.0,680.0,670.0,674.0,670.0,684.0,668.0,678.0,682.0,700.0,698.0,686.0,670.0,666.0,662.0,644.0,654.0,652.0,650.0,652.0,668.0,662.0,668.0,664.0,646.0,644.0,650.0,672.0,624.0,616.0,598.0,608.0,622.0,620.0,606.0,624.0,636.0,634.0,648.0,618.0,616.0,644.0,628.0,640.0,636.0,646.0,628.0,612.0,616.0,618.0,628.0,624.0,642.0,620.0,608.0,626.0,610.0,644.0,614.0,622.0,588.0,602.0,614.0,618.0,648.0,626.0,632.0,638.0,628.0,632.0,622.0,616.0,592.0,594.0,590.0,588.0,590.0,604.0,602.0,600.0,608.0,622.0,656.0,654.0,642.0,652.0,654.0,598.0,614.0,616.0,626.0,648.0,614.0,600.0,620.0,612.0,606.0,604.0,590.0,588.0,584.0,592.0,612.0,648.0,630.0,638.0,642.0,638.0,634.0,638.0,626.0,622.0,624.0,600.0,598.0,604.0,624.0,626.0,638.0,646.0,640.0,656.0,682.0,684.0,700.0,686.0,676.0,658.0,660.0,620.0,626.0,630.0,634.0,644.0,642.0,682.0,660.0,622.0,602.0,674.0,634.0,620.0,598.0,582.0,600.0,598.0,620.0,622.0,634.0,628.0,640.0,654.0,658.0,654.0,640.0,636.0,648.0,660.0,650.0,658.0,672.0,644.0,650.0,658.0,646.0,648.0,622.0,616.0,626.0,636.0,612.0,640.0,650.0,656.0,674.0,680.0,688.0,672.0,676.0,660.0,664.0,652.0,628.0,632.0,626.0,630.0,628.0,602.0,614.0,630.0,640.0,646.0,644.0,658.0,670.0,686.0,674.0,678.0,682.0,654.0,668.0,660.0,638.0,656.0,650.0,642.0,640.0,646.0,614.0,626.0,648.0,644.0,640.0,658.0,650.0,648.0,638.0,642.0,636.0,610.0,636.0,634.0,630.0,636.0,628.0,638.0,632.0,646.0,642.0,648.0,664.0,656.0,668.0,632.0,648.0,632.0,640.0,646.0,584.0,600.0,580.0,584.0,578.0,592.0,600.0,606.0,616.0,634.0,648.0,666.0,692.0,704.0,698.0,710.0,664.0,682.0,680.0,696.0,658.0,664.0,642.0,628.0,646.0,630.0,634.0,654.0,662.0,624.0,648.0,658.0,650.0,656.0,668.0,662.0,670.0,664.0,628.0,654.0,628.0,604.0,600.0,608.0,616.0,660.0,662.0,666.0,700.0,696.0,684.0,680.0,682.0,680.0,694.0,676.0,690.0,686.0,676.0,648.0,656.0,658.0,668.0,646.0,648.0,662.0,684.0,678.0,686.0,678.0,640.0,612.0,614.0,626.0,636.0,610.0,594.0,592.0,584.0,598.0,606.0,662.0,666.0,680.0,692.0,680.0,682.0,672.0,644.0,650.0,630.0,616.0,604.0,598.0,600.0,610.0,646.0,676.0,690.0,688.0,702.0,712.0,704.0,700.0,714.0,720.0,692.0,592.0,356.0,352.0,1920.0,,,,,,,,,,,,,,,,,,,,,,,,,,,,,,,,,,,,,,,,,,,,,,,,,,,,,,,,,,,,,,,,,,,,,,,,,,,,,,,,,,,,,
sub_5,stress,680.0,702.0,672.0,640.0,676.0,708.0,646.0,692.0,712.0,720.0,680.0,686.0,718.0,678.0,708.0,682.0,664.0,660.0,670.0,632.0,636.0,654.0,678.0,666.0,692.0,704.0,688.0,686.0,730.0,734.0,698.0,658.0,638.0,634.0,670.0,678.0,688.0,682.0,724.0,736.0,734.0,706.0,694.0,684.0,678.0,656.0,680.0,656.0,658.0,662.0,652.0,636.0,624.0,626.0,642.0,646.0,656.0,674.0,646.0,678.0,636.0,650.0,668.0,678.0,646.0,662.0,676.0,654.0,658.0,678.0,656.0,646.0,662.0,666.0,640.0,650.0,678.0,668.0,652.0,674.0,676.0,662.0,678.0,702.0,716.0,678.0,704.0,666.0,680.0,654.0,638.0,644.0,654.0,694.0,666.0,646.0,622.0,652.0,616.0,614.0,592.0,624.0,608.0,684.0,688.0,734.0,664.0,654.0,688.0,698.0,646.0,608.0,622.0,636.0,662.0,650.0,672.0,658.0,674.0,658.0,636.0,634.0,638.0,650.0,628.0,630.0,646.0,648.0,656.0,660.0,656.0,680.0,662.0,656.0,666.0,634.0,640.0,642.0,638.0,620.0,638.0,654.0,636.0,640.0,646.0,636.0,626.0,648.0,636.0,594.0,648.0,608.0,614.0,612.0,606.0,596.0,630.0,572.0,594.0,604.0,618.0,606.0,616.0,638.0,632.0,634.0,650.0,666.0,650.0,642.0,640.0,634.0,622.0,602.0,604.0,594.0,620.0,638.0,652.0,612.0,632.0,652.0,670.0,680.0,638.0,634.0,636.0,638.0,604.0,606.0,632.0,586.0,588.0,578.0,606.0,574.0,622.0,616.0,626.0,638.0,648.0,614.0,634.0,628.0,614.0,626.0,632.0,630.0,620.0,638.0,648.0,626.0,640.0,646.0,652.0,636.0,650.0,628.0,646.0,664.0,602.0,630.0,612.0,634.0,642.0,644.0,632.0,630.0,602.0,566.0,596.0,610.0,586.0,612.0,636.0,650.0,702.0,638.0,702.0,674.0,664.0,624.0,578.0,640.0,586.0,550.0,534.0,564.0,602.0,508.0,588.0,568.0,606.0,548.0,588.0,554.0,588.0,564.0,584.0,578.0,632.0,564.0,596.0,590.0,594.0,574.0,594.0,572.0,564.0,532.0,564.0,536.0,554.0,552.0,562.0,598.0,622.0,654.0,668.0,686.0,676.0,680.0,662.0,678.0,644.0,670.0,644.0,638.0,620.0,594.0,606.0,614.0,608.0,624.0,660.0,680.0,702.0,656.0,642.0,634.0,644.0,650.0,644.0,640.0,650.0,666.0,670.0,698.0,706.0,700.0,710.0,668.0,648.0,662.0,674.0,648.0,636.0,620.0,612.0,600.0,606.0,626.0,648.0,666.0,660.0,648.0,654.0,678.0,684.0,676.0,684.0,664.0,658.0,680.0,638.0,622.0,654.0,624.0,610.0,658.0,690.0,684.0,638.0,688.0,662.0,642.0,672.0,682.0,672.0,668.0,686.0,630.0,632.0,628.0,622.0,632.0,624.0,602.0,612.0,620.0,618.0,626.0,632.0,624.0,628.0,640.0,604.0,582.0,604.0,606.0,596.0,582.0,590.0,626.0,620.0,590.0,616.0,626.0,640.0,614.0,624.0,636.0,614.0,618.0,644.0,646.0,670.0,672.0,644.0,650.0,674.0,622.0,616.0,640.0,636.0,648.0,632.0,646.0,662.0,644.0,646.0,642.0,640.0,602.0,616.0,618.0,620.0,582.0,636.0,602.0,634.0,630.0,642.0,644.0,622.0,638.0,648.0,606.0,616.0,634.0,614.0,626.0,662.0,660.0,648.0,640.0,660.0,644.0,636.0,644.0,618.0,612.0,610.0,616.0,622.0,632.0,616.0,646.0,674.0,652.0,650.0,668.0,666.0,642.0,648.0,632.0,634.0,646.0,626.0,658.0,674.0,650.0,662.0,668.0,636.0,634.0,648.0,604.0,616.0,592.0,626.0,642.0,634.0,654.0,664.0,688.0,674.0,666.0,680.0,684.0,644.0,654.0,630.0,640.0,658.0,646.0,632.0,650.0,610.0,628.0,612.0,610.0,586.0,572.0,604.0,588.0,604.0,636.0,666.0,652.0,648.0,670.0,656.0,632.0,628.0,626.0,610.0,628.0,606.0,612.0,634.0,648.0,626.0,618.0,616.0,610.0,612.0,618.0,654.0,614.0,644.0,648.0,620.0,608.0,610.0,602.0,588.0,594.0,620.0,634.0,630.0,626.0,652.0,664.0,648.0,656.0,670.0,652.0,658.0,666.0,638.0,606.0,640.0,622.0,,,,,,,,,,,,,,,,,,,,,,,,,,,,,,,,,,,,,,,,,,,,,,,,,,,,,,,,,,,,,,,,,,,,,,,,,,,,,,,,,,,,,,,,,,,,,,,,,,,,,,,,,,,,,,,,,,,,,,,,,,,,,,,,,,,,,,,,,,,,,,,,,,,,
sub_6,stress,666.0,636.0,644.0,616.0,694.0,652.0,612.0,664.0,596.0,590.0,586.0,568.0,586.0,558.0,554.0,616.0,570.0,636.0,546.0,576.0,580.0,590.0,586.0,558.0,618.0,600.0,614.0,626.0,608.0,654.0,588.0,590.0,568.0,556.0,584.0,534.0,530.0,532.0,542.0,550.0,558.0,600.0,640.0,672.0,664.0,662.0,606.0,678.0,562.0,616.0,602.0,564.0,566.0,616.0,638.0,604.0,690.0,684.0,628.0,658.0,634.0,690.0,646.0,640.0,664.0,658.0,688.0,678.0,650.0,636.0,630.0,666.0,660.0,688.0,650.0,606.0,608.0,638.0,620.0,606.0,620.0,636.0,624.0,640.0,654.0,678.0,686.0,658.0,626.0,608.0,598.0,584.0,608.0,644.0,652.0,632.0,572.0,606.0,602.0,620.0,654.0,684.0,702.0,680.0,648.0,620.0,626.0,624.0,590.0,554.0,578.0,622.0,680.0,732.0,736.0,686.0,698.0,726.0,754.0,704.0,696.0,746.0,752.0,750.0,698.0,710.0,750.0,706.0,684.0,694.0,722.0,720.0,756.0,698.0,684.0,676.0,696.0,702.0,670.0,656.0,704.0,686.0,678.0,670.0,686.0,692.0,670.0,662.0,668.0,672.0,694.0,704.0,624.0,662.0,626.0,662.0,554.0,598.0,600.0,576.0,624.0,660.0,694.0,698.0,730.0,676.0,626.0,664.0,612.0,630.0,618.0,600.0,622.0,620.0,640.0,656.0,680.0,652.0,674.0,698.0,684.0,680.0,664.0,594.0,598.0,612.0,632.0,654.0,664.0,660.0,630.0,644.0,670.0,692.0,706.0,712.0,682.0,644.0,662.0,644.0,618.0,604.0,620.0,658.0,688.0,684.0,650.0,692.0,748.0,776.0,748.0,666.0,662.0,670.0,596.0,666.0,618.0,640.0,622.0,594.0,564.0,598.0,588.0,586.0,618.0,668.0,650.0,696.0,680.0,658.0,664.0,656.0,708.0,628.0,600.0,606.0,580.0,600.0,630.0,628.0,648.0,656.0,654.0,666.0,630.0,648.0,666.0,630.0,606.0,624.0,674.0,688.0,640.0,632.0,666.0,706.0,708.0,676.0,666.0,708.0,710.0,662.0,634.0,648.0,674.0,662.0,646.0,644.0,658.0,708.0,654.0,676.0,696.0,710.0,674.0,670.0,694.0,698.0,668.0,620.0,638.0,664.0,640.0,614.0,620.0,658.0,688.0,706.0,714.0,652.0,634.0,666.0,680.0,658.0,622.0,652.0,684.0,654.0,664.0,680.0,662.0,632.0,654.0,692.0,722.0,674.0,658.0,680.0,708.0,660.0,626.0,654.0,664.0,640.0,630.0,658.0,664.0,656.0,638.0,650.0,686.0,718.0,692.0,654.0,656.0,688.0,670.0,618.0,640.0,662.0,646.0,624.0,658.0,684.0,658.0,626.0,656.0,672.0,666.0,632.0,630.0,662.0,678.0,656.0,634.0,644.0,668.0,640.0,638.0,654.0,700.0,688.0,638.0,652.0,674.0,704.0,658.0,638.0,668.0,670.0,676.0,628.0,618.0,644.0,660.0,640.0,616.0,630.0,650.0,666.0,636.0,628.0,654.0,692.0,684.0,620.0,642.0,672.0,684.0,642.0,644.0,666.0,682.0,646.0,640.0,652.0,692.0,654.0,628.0,646.0,672.0,684.0,642.0,648.0,668.0,702.0,658.0,630.0,682.0,694.0,674.0,636.0,646.0,678.0,742.0,690.0,650.0,674.0,706.0,712.0,660.0,666.0,696.0,728.0,696.0,660.0,642.0,678.0,676.0,644.0,612.0,650.0,682.0,648.0,634.0,678.0,704.0,662.0,648.0,690.0,696.0,658.0,634.0,654.0,674.0,660.0,628.0,642.0,666.0,700.0,664.0,630.0,674.0,696.0,684.0,630.0,644.0,668.0,688.0,644.0,612.0,630.0,652.0,666.0,646.0,644.0,688.0,716.0,670.0,662.0,686.0,704.0,654.0,640.0,656.0,680.0,646.0,638.0,654.0,664.0,640.0,626.0,638.0,660.0,632.0,586.0,596.0,622.0,612.0,596.0,618.0,664.0,666.0,632.0,636.0,652.0,676.0,640.0,606.0,636.0,656.0,644.0,608.0,628.0,650.0,646.0,628.0,602.0,626.0,632.0,594.0,616.0,652.0,672.0,636.0,642.0,644.0,648.0,612.0,606.0,626.0,632.0,614.0,596.0,606.0,632.0,664.0,650.0,614.0,640.0,650.0,658.0,642.0,612.0,644.0,648.0,608.0,604.0,618.0,630.0,628.0,596.0,606.0,636.0,656.0,632.0,618.0,654.0,674.0,646.0,622.0,650.0,670.0,636.0,620.0,624.0,654.0,676.0,646.0,636.0,654.0,686.0,660.0,624.0,634.0,666.0,704.0,658.0,626.0,634.0,664.0,650.0,626.0,614.0,636.0,660.0,648.0,620.0,646.0,668.0,700.0,678.0,630.0,668.0,688.0,716.0,686.0,638.0,654.0,680.0,706.0,658.0,624.0,640.0,646.0,672.0,634.0,620.0,678.0,710.0,678.0,638.0,660.0,734.0,684.0,670.0,622.0,638.0,644.0,664.0,648.0,620.0,646.0,686.0,702.0,638.0,640.0,654.0,692.0,674.0,630.0,636.0,650.0,688.0,674.0,636.0,652.0,704.0,698.0,650.0,624.0,632.0,666.0,670.0,676.0,654.0,682.0,664.0,656.0,592.0,588.0,578.0,630.0,558.0,628.0,608.0,588.0,616.0,668.0,684.0,652.0,630.0,654.0,688.0,676.0,636.0,616.0,630.0,658.0,672.0,622.0,612.0,646.0,706.0,776.0,698.0,662.0,720.0,732.0,678.0,686.0,,,,,,,,,,,,,,,,,,,,,
sub_7,stress,608.0,614.0,612.0,592.0,576.0,608.0,636.0,662.0,656.0,610.0,636.0,698.0,692.0,672.0,630.0,582.0,560.0,564.0,586.0,628.0,650.0,598.0,584.0,620.0,652.0,676.0,624.0,586.0,596.0,606.0,636.0,618.0,592.0,604.0,616.0,660.0,676.0,622.0,614.0,624.0,638.0,650.0,606.0,592.0,624.0,672.0,642.0,598.0,568.0,572.0,560.0,538.0,520.0,534.0,518.0,528.0,544.0,594.0,558.0,506.0,552.0,532.0,524.0,520.0,534.0,544.0,584.0,604.0,578.0,594.0,648.0,688.0,632.0,590.0,604.0,622.0,662.0,668.0,612.0,586.0,604.0,570.0,568.0,592.0,766.0,862.0,806.0,710.0,694.0,788.0,706.0,640.0,660.0,780.0,856.0,818.0,708.0,640.0,662.0,726.0,820.0,780.0,668.0,670.0,736.0,844.0,786.0,660.0,732.0,816.0,720.0,654.0,678.0,716.0,754.0,694.0,672.0,750.0,802.0,728.0,642.0,624.0,654.0,700.0,744.0,676.0,644.0,706.0,790.0,770.0,682.0,670.0,664.0,652.0,622.0,598.0,616.0,640.0,686.0,636.0,598.0,636.0,758.0,770.0,660.0,656.0,652.0,606.0,604.0,620.0,634.0,664.0,648.0,600.0,594.0,620.0,650.0,690.0,638.0,616.0,638.0,648.0,662.0,616.0,596.0,626.0,644.0,654.0,612.0,586.0,600.0,618.0,642.0,608.0,584.0,608.0,638.0,676.0,634.0,588.0,598.0,628.0,652.0,604.0,566.0,576.0,596.0,616.0,592.0,578.0,638.0,704.0,738.0,690.0,606.0,588.0,582.0,558.0,554.0,564.0,608.0,710.0,754.0,740.0,652.0,606.0,620.0,642.0,670.0,686.0,638.0,600.0,636.0,644.0,630.0,612.0,642.0,630.0,594.0,600.0,628.0,642.0,646.0,612.0,584.0,592.0,614.0,648.0,676.0,614.0,564.0,582.0,604.0,672.0,760.0,676.0,604.0,612.0,638.0,660.0,690.0,646.0,588.0,580.0,588.0,604.0,650.0,652.0,624.0,644.0,668.0,678.0,672.0,618.0,588.0,600.0,626.0,674.0,646.0,592.0,588.0,594.0,608.0,636.0,618.0,590.0,616.0,666.0,652.0,576.0,556.0,576.0,596.0,620.0,598.0,590.0,606.0,582.0,576.0,618.0,684.0,700.0,634.0,610.0,634.0,654.0,632.0,588.0,576.0,582.0,576.0,578.0,568.0,556.0,582.0,672.0,762.0,680.0,614.0,634.0,662.0,664.0,616.0,586.0,600.0,612.0,600.0,572.0,568.0,602.0,628.0,658.0,614.0,584.0,612.0,628.0,624.0,588.0,572.0,598.0,648.0,674.0,622.0,584.0,598.0,612.0,622.0,600.0,570.0,578.0,610.0,630.0,656.0,608.0,570.0,582.0,598.0,626.0,616.0,578.0,594.0,596.0,608.0,588.0,572.0,592.0,640.0,670.0,630.0,596.0,614.0,640.0,622.0,592.0,588.0,608.0,648.0,664.0,622.0,612.0,634.0,664.0,638.0,590.0,576.0,580.0,594.0,640.0,634.0,586.0,580.0,608.0,656.0,672.0,612.0,592.0,610.0,618.0,622.0,588.0,562.0,570.0,572.0,586.0,560.0,562.0,606.0,678.0,710.0,690.0,610.0,568.0,578.0,596.0,642.0,662.0,608.0,604.0,652.0,638.0,610.0,608.0,598.0,560.0,552.0,556.0,570.0,580.0,596.0,604.0,580.0,570.0,560.0,556.0,550.0,558.0,580.0,612.0,618.0,622.0,608.0,662.0,690.0,660.0,682.0,728.0,784.0,732.0,694.0,700.0,712.0,706.0,666.0,618.0,614.0,574.0,528.0,550.0,526.0,550.0,560.0,584.0,612.0,606.0,604.0,612.0,614.0,596.0,572.0,560.0,550.0,556.0,554.0,570.0,674.0,808.0,848.0,742.0,732.0,704.0,634.0,614.0,608.0,642.0,620.0,588.0,590.0,586.0,622.0,644.0,598.0,588.0,582.0,592.0,604.0,614.0,596.0,576.0,574.0,562.0,580.0,576.0,654.0,722.0,704.0,692.0,746.0,814.0,876.0,770.0,670.0,644.0,688.0,902.0,,,,,,,,,,,,,,,,,,,,,,,,,,,,,,,,,,,,,,,,,,,,,,,,,,,,,,,,,,,,,,,,,,,,,,,,,,,,,,,,,,,,,,,,,,,,,,,,,,,,,,,,,,,,,,,,,,,,,,,,,,,,,,,,,,,,,,,,,,,,,,,,,,,,,,,,,,,,,,,,,,,,,,,,,,,,,,,,,,,,,,,,,,,,
sub_8,stress,272.0,418.0,252.0,474.0,284.0,480.0,820.0,750.0,736.0,808.0,850.0,750.0,682.0,668.0,744.0,834.0,822.0,732.0,720.0,822.0,868.0,802.0,734.0,744.0,852.0,758.0,694.0,650.0,768.0,862.0,984.0,946.0,824.0,834.0,886.0,832.0,736.0,754.0,866.0,950.0,894.0,906.0,882.0,828.0,740.0,738.0,774.0,754.0,714.0,708.0,874.0,1026.0,1052.0,994.0,966.0,912.0,838.0,852.0,810.0,760.0,680.0,718.0,840.0,892.0,798.0,830.0,964.0,956.0,892.0,890.0,832.0,790.0,726.0,740.0,780.0,758.0,702.0,670.0,726.0,852.0,928.0,942.0,878.0,926.0,920.0,882.0,748.0,782.0,784.0,812.0,798.0,812.0,750.0,686.0,726.0,812.0,844.0,768.0,850.0,932.0,906.0,932.0,908.0,850.0,796.0,946.0,990.0,866.0,908.0,918.0,910.0,918.0,838.0,854.0,904.0,886.0,864.0,946.0,934.0,820.0,752.0,742.0,774.0,826.0,792.0,752.0,722.0,904.0,876.0,774.0,844.0,826.0,834.0,784.0,698.0,756.0,740.0,812.0,750.0,708.0,688.0,698.0,764.0,842.0,776.0,808.0,834.0,820.0,776.0,718.0,728.0,756.0,678.0,646.0,660.0,696.0,718.0,702.0,688.0,732.0,756.0,772.0,722.0,716.0,734.0,790.0,722.0,688.0,698.0,750.0,732.0,684.0,658.0,684.0,694.0,714.0,670.0,656.0,652.0,634.0,660.0,658.0,630.0,626.0,642.0,670.0,634.0,606.0,604.0,638.0,644.0,622.0,630.0,666.0,664.0,646.0,644.0,688.0,734.0,712.0,680.0,676.0,700.0,704.0,726.0,794.0,814.0,866.0,754.0,700.0,742.0,738.0,714.0,746.0,704.0,672.0,754.0,854.0,916.0,834.0,848.0,938.0,930.0,842.0,804.0,872.0,828.0,804.0,834.0,766.0,752.0,856.0,952.0,994.0,916.0,844.0,812.0,824.0,828.0,748.0,764.0,838.0,846.0,808.0,862.0,900.0,914.0,898.0,884.0,946.0,918.0,814.0,724.0,758.0,826.0,924.0,954.0,838.0,874.0,928.0,830.0,780.0,792.0,818.0,760.0,782.0,818.0,844.0,792.0,832.0,874.0,916.0,826.0,890.0,916.0,896.0,826.0,840.0,898.0,928.0,826.0,858.0,912.0,914.0,850.0,966.0,920.0,870.0,778.0,766.0,778.0,810.0,776.0,734.0,856.0,844.0,776.0,820.0,852.0,776.0,702.0,718.0,766.0,724.0,712.0,734.0,760.0,754.0,726.0,776.0,826.0,774.0,744.0,770.0,790.0,764.0,724.0,744.0,798.0,750.0,698.0,710.0,722.0,708.0,674.0,688.0,720.0,740.0,758.0,720.0,740.0,772.0,710.0,686.0,738.0,808.0,782.0,736.0,724.0,760.0,828.0,826.0,790.0,778.0,824.0,856.0,790.0,818.0,826.0,776.0,694.0,716.0,746.0,758.0,728.0,714.0,764.0,882.0,848.0,768.0,784.0,822.0,744.0,782.0,754.0,730.0,706.0,788.0,882.0,856.0,812.0,930.0,912.0,830.0,794.0,,,,,,,,,,,,,,,,,,,,,,,,,,,,,,,,,,,,,,,,,,,,,,,,,,,,,,,,,,,,,,,,,,,,,,,,,,,,,,,,,,,,,,,,,,,,,,,,,,,,,,,,,,,,,,,,,,,,,,,,,,,,,,,,,,,,,,,,,,,,,,,,,,,,,,,,,,,,,,,,,,,,,,,,,,,,,,,,,,,,,,,,,,,,,,,,,,,,,,,,,,,,,,,,,,,,,,,,,,,,,,,,,,,,,,,,,,,,,,,,,,,,,,,,,,,,,,,,,,,,,,,,,,,,,,,,,,,,,,,,,,,,,,,,,,,,,,,,,,,,,,,,,,,
sub_9,stress,678.0,664.0,640.0,634.0,598.0,602.0,626.0,660.0,662.0,656.0,664.0,638.0,618.0,668.0,712.0,752.0,738.0,682.0,628.0,650.0,666.0,722.0,714.0,726.0,728.0,716.0,674.0,614.0,644.0,696.0,722.0,636.0,604.0,608.0,612.0,880.0,804.0,722.0,686.0,628.0,620.0,630.0,640.0,616.0,610.0,608.0,670.0,734.0,758.0,714.0,670.0,672.0,658.0,602.0,598.0,628.0,670.0,688.0,668.0,620.0,636.0,664.0,676.0,654.0,670.0,660.0,662.0,648.0,614.0,630.0,664.0,712.0,694.0,642.0,598.0,590.0,608.0,632.0,674.0,636.0,612.0,636.0,672.0,676.0,632.0,622.0,648.0,636.0,652.0,618.0,614.0,644.0,670.0,644.0,660.0,686.0,678.0,656.0,618.0,636.0,660.0,686.0,688.0,612.0,632.0,648.0,628.0,666.0,684.0,666.0,644.0,626.0,664.0,672.0,678.0,686.0,642.0,630.0,660.0,672.0,658.0,624.0,638.0,644.0,652.0,616.0,612.0,636.0,620.0,608.0,624.0,646.0,594.0,586.0,612.0,626.0,632.0,614.0,594.0,620.0,664.0,706.0,700.0,664.0,630.0,612.0,644.0,660.0,686.0,702.0,684.0,656.0,642.0,622.0,582.0,588.0,594.0,582.0,642.0,690.0,664.0,618.0,600.0,632.0,700.0,712.0,654.0,628.0,656.0,664.0,624.0,626.0,658.0,666.0,650.0,610.0,634.0,662.0,674.0,732.0,728.0,710.0,622.0,636.0,620.0,612.0,656.0,666.0,692.0,672.0,644.0,658.0,686.0,690.0,680.0,632.0,618.0,652.0,716.0,726.0,696.0,654.0,674.0,664.0,698.0,712.0,670.0,648.0,674.0,740.0,690.0,632.0,634.0,608.0,626.0,596.0,600.0,602.0,648.0,732.0,722.0,702.0,666.0,614.0,622.0,658.0,662.0,660.0,666.0,640.0,648.0,622.0,590.0,602.0,616.0,726.0,730.0,702.0,650.0,630.0,618.0,602.0,610.0,638.0,624.0,606.0,644.0,696.0,704.0,700.0,654.0,612.0,636.0,654.0,670.0,702.0,668.0,634.0,600.0,604.0,586.0,616.0,614.0,632.0,644.0,634.0,612.0,608.0,640.0,668.0,700.0,718.0,698.0,640.0,624.0,630.0,642.0,624.0,614.0,662.0,696.0,744.0,702.0,628.0,612.0,604.0,624.0,612.0,614.0,644.0,666.0,664.0,638.0,602.0,622.0,650.0,654.0,640.0,608.0,594.0,614.0,628.0,662.0,620.0,616.0,642.0,682.0,622.0,614.0,612.0,600.0,596.0,574.0,570.0,592.0,618.0,632.0,648.0,638.0,588.0,586.0,600.0,614.0,638.0,624.0,594.0,624.0,642.0,692.0,718.0,660.0,648.0,686.0,716.0,722.0,668.0,604.0,612.0,638.0,690.0,708.0,696.0,654.0,662.0,690.0,654.0,610.0,632.0,652.0,696.0,700.0,640.0,652.0,694.0,708.0,654.0,630.0,652.0,674.0,654.0,622.0,594.0,564.0,596.0,584.0,632.0,708.0,624.0,636.0,626.0,616.0,610.0,614.0,608.0,602.0,608.0,612.0,614.0,616.0,620.0,646.0,634.0,656.0,666.0,688.0,708.0,694.0,646.0,626.0,654.0,688.0,702.0,656.0,628.0,666.0,698.0,672.0,622.0,610.0,644.0,664.0,668.0,638.0,614.0,626.0,638.0,652.0,646.0,610.0,612.0,632.0,660.0,678.0,672.0,606.0,596.0,614.0,612.0,606.0,612.0,622.0,638.0,600.0,598.0,602.0,626.0,650.0,654.0,648.0,626.0,612.0,622.0,626.0,624.0,628.0,616.0,578.0,570.0,588.0,602.0,,,,,,,,,,,,,,,,,,,,,,,,,,,,,,,,,,,,,,,,,,,,,,,,,,,,,,,,,,,,,,,,,,,,,,,,,,,,,,,,,,,,,,,,,,,,,,,,,,,,,,,,,,,,,,,,,,,,,,,,,,,,,,,,,,,,,,,,,,,,,,,,,,,,,,,,,,,,,,,,,,,,,,,,,,,,,,,,,,,,,,,,,,,,,,,,,,,,,,,,,,,,,,,,,,,,,,,,,,,,,,,,,,,,,,,,,,,,,,,,,,
sub_10,stress,556.0,564.0,562.0,560.0,550.0,554.0,562.0,572.0,568.0,582.0,600.0,620.0,614.0,582.0,574.0,562.0,552.0,556.0,566.0,554.0,590.0,614.0,636.0,654.0,676.0,666.0,624.0,606.0,630.0,620.0,598.0,596.0,606.0,586.0,602.0,618.0,586.0,634.0,672.0,686.0,700.0,648.0,626.0,674.0,650.0,638.0,690.0,688.0,662.0,670.0,664.0,640.0,626.0,644.0,638.0,616.0,620.0,640.0,654.0,624.0,598.0,606.0,624.0,704.0,700.0,674.0,654.0,634.0,626.0,616.0,598.0,582.0,586.0,584.0,606.0,620.0,618.0,604.0,592.0,586.0,568.0,570.0,578.0,598.0,632.0,644.0,664.0,678.0,666.0,696.0,670.0,690.0,642.0,632.0,636.0,632.0,638.0,652.0,658.0,702.0,678.0,704.0,636.0,604.0,610.0,620.0,632.0,674.0,634.0,616.0,608.0,590.0,598.0,638.0,648.0,684.0,686.0,670.0,666.0,650.0,638.0,620.0,612.0,620.0,616.0,634.0,664.0,660.0,658.0,676.0,664.0,634.0,612.0,592.0,626.0,802.0,778.0,768.0,760.0,736.0,706.0,692.0,672.0,666.0,646.0,614.0,634.0,662.0,650.0,688.0,714.0,736.0,718.0,694.0,682.0,686.0,724.0,740.0,710.0,660.0,690.0,704.0,662.0,674.0,740.0,770.0,840.0,818.0,796.0,738.0,720.0,706.0,688.0,690.0,712.0,716.0,748.0,764.0,684.0,660.0,670.0,690.0,652.0,664.0,646.0,656.0,762.0,734.0,786.0,764.0,738.0,750.0,724.0,716.0,712.0,684.0,732.0,726.0,734.0,656.0,674.0,696.0,714.0,734.0,758.0,710.0,660.0,640.0,642.0,628.0,646.0,674.0,668.0,684.0,700.0,760.0,736.0,688.0,646.0,686.0,722.0,714.0,752.0,766.0,792.0,776.0,782.0,764.0,760.0,694.0,702.0,726.0,712.0,756.0,792.0,796.0,804.0,794.0,762.0,722.0,690.0,656.0,690.0,718.0,782.0,790.0,798.0,796.0,752.0,758.0,742.0,718.0,720.0,692.0,632.0,656.0,686.0,796.0,824.0,832.0,816.0,792.0,756.0,746.0,688.0,650.0,648.0,640.0,660.0,672.0,734.0,788.0,812.0,790.0,766.0,746.0,732.0,718.0,708.0,704.0,698.0,714.0,710.0,766.0,690.0,664.0,688.0,698.0,662.0,692.0,734.0,788.0,792.0,766.0,738.0,730.0,716.0,704.0,656.0,674.0,716.0,752.0,774.0,772.0,694.0,672.0,686.0,682.0,634.0,642.0,658.0,710.0,728.0,748.0,764.0,704.0,676.0,698.0,708.0,714.0,706.0,708.0,714.0,720.0,750.0,754.0,798.0,728.0,692.0,706.0,740.0,720.0,708.0,688.0,752.0,836.0,814.0,822.0,834.0,850.0,806.0,736.0,706.0,684.0,702.0,700.0,736.0,746.0,764.0,784.0,756.0,788.0,746.0,774.0,748.0,676.0,712.0,732.0,764.0,752.0,744.0,746.0,706.0,718.0,736.0,786.0,808.0,766.0,812.0,758.0,752.0,730.0,728.0,734.0,764.0,748.0,750.0,724.0,694.0,700.0,680.0,718.0,702.0,764.0,786.0,772.0,760.0,722.0,734.0,718.0,728.0,720.0,750.0,734.0,744.0,722.0,744.0,748.0,708.0,726.0,740.0,694.0,650.0,640.0,706.0,768.0,744.0,740.0,726.0,716.0,690.0,672.0,660.0,640.0,650.0,648.0,692.0,740.0,774.0,796.0,766.0,774.0,772.0,784.0,782.0,760.0,724.0,706.0,708.0,710.0,742.0,748.0,756.0,730.0,734.0,740.0,716.0,724.0,728.0,738.0,702.0,672.0,666.0,644.0,660.0,732.0,748.0,768.0,742.0,738.0,736.0,712.0,706.0,666.0,662.0,670.0,706.0,722.0,762.0,784.0,806.0,746.0,740.0,716.0,714.0,710.0,732.0,716.0,688.0,710.0,722.0,738.0,706.0,716.0,718.0,732.0,692.0,684.0,702.0,730.0,716.0,692.0,716.0,430.0,,,,,,,,,,,,,,,,,,,,,,,,,,,,,,,,,,,,,,,,,,,,,,,,,,,,,,,,,,,,,,,,,,,,,,,,,,,,,,,,,,,,,,,,,,,,,,,,,,,,,,,,,,,,,,,,,,,,,,,,,,,,,,,,,,,,,,,,,,,,,,,,,,,,,,,,,,,,,,,,,,,,,,,,,,,,,,,,,,,,,,,,,,,,,,,,,,,,,,
sub_11,stress,784.0,816.0,858.0,922.0,810.0,742.0,734.0,738.0,776.0,784.0,802.0,810.0,792.0,788.0,790.0,786.0,760.0,784.0,748.0,758.0,710.0,762.0,770.0,716.0,722.0,710.0,746.0,710.0,702.0,726.0,732.0,706.0,668.0,648.0,638.0,662.0,688.0,710.0,784.0,938.0,1000.0,924.0,892.0,884.0,778.0,718.0,678.0,672.0,668.0,720.0,730.0,794.0,818.0,810.0,812.0,756.0,722.0,700.0,690.0,704.0,754.0,736.0,712.0,688.0,746.0,706.0,694.0,760.0,724.0,730.0,718.0,698.0,712.0,684.0,666.0,682.0,650.0,736.0,746.0,716.0,788.0,746.0,704.0,774.0,742.0,722.0,696.0,682.0,708.0,680.0,650.0,670.0,664.0,668.0,716.0,732.0,744.0,704.0,700.0,818.0,736.0,696.0,746.0,728.0,696.0,694.0,714.0,686.0,706.0,688.0,694.0,680.0,654.0,636.0,672.0,692.0,696.0,722.0,688.0,684.0,728.0,750.0,680.0,644.0,674.0,696.0,678.0,664.0,676.0,682.0,668.0,684.0,656.0,674.0,680.0,702.0,682.0,692.0,690.0,670.0,658.0,646.0,644.0,632.0,624.0,654.0,638.0,666.0,664.0,650.0,644.0,610.0,616.0,610.0,614.0,634.0,640.0,644.0,664.0,680.0,690.0,656.0,634.0,666.0,682.0,686.0,658.0,612.0,620.0,624.0,620.0,634.0,640.0,644.0,664.0,636.0,634.0,684.0,680.0,666.0,680.0,716.0,704.0,678.0,648.0,656.0,676.0,684.0,658.0,660.0,680.0,708.0,696.0,678.0,698.0,716.0,688.0,656.0,664.0,678.0,692.0,682.0,694.0,742.0,830.0,842.0,794.0,776.0,724.0,670.0,660.0,632.0,620.0,628.0,664.0,742.0,726.0,744.0,840.0,824.0,722.0,718.0,730.0,750.0,714.0,702.0,722.0,746.0,738.0,736.0,748.0,690.0,702.0,704.0,690.0,670.0,662.0,692.0,708.0,704.0,694.0,710.0,708.0,692.0,672.0,674.0,660.0,710.0,854.0,876.0,798.0,832.0,868.0,852.0,786.0,748.0,740.0,734.0,708.0,644.0,656.0,648.0,658.0,702.0,700.0,680.0,684.0,680.0,698.0,668.0,684.0,700.0,704.0,702.0,732.0,746.0,762.0,740.0,798.0,828.0,822.0,768.0,760.0,766.0,764.0,726.0,674.0,658.0,670.0,646.0,670.0,698.0,760.0,730.0,710.0,750.0,788.0,754.0,696.0,676.0,684.0,706.0,754.0,750.0,734.0,722.0,714.0,674.0,656.0,678.0,664.0,666.0,698.0,758.0,720.0,700.0,728.0,738.0,740.0,684.0,670.0,680.0,688.0,672.0,658.0,660.0,696.0,720.0,684.0,698.0,694.0,676.0,654.0,650.0,660.0,658.0,670.0,686.0,736.0,782.0,810.0,778.0,760.0,764.0,738.0,670.0,658.0,652.0,642.0,654.0,752.0,722.0,728.0,758.0,662.0,636.0,600.0,638.0,604.0,596.0,590.0,618.0,626.0,618.0,604.0,610.0,598.0,604.0,586.0,604.0,642.0,650.0,664.0,680.0,708.0,692.0,688.0,714.0,706.0,694.0,664.0,676.0,688.0,714.0,720.0,732.0,690.0,752.0,788.0,786.0,710.0,702.0,722.0,752.0,768.0,726.0,816.0,820.0,844.0,794.0,776.0,780.0,766.0,758.0,766.0,782.0,744.0,748.0,780.0,784.0,738.0,708.0,714.0,704.0,656.0,646.0,662.0,682.0,,,,,,,,,,,,,,,,,,,,,,,,,,,,,,,,,,,,,,,,,,,,,,,,,,,,,,,,,,,,,,,,,,,,,,,,,,,,,,,,,,,,,,,,,,,,,,,,,,,,,,,,,,,,,,,,,,,,,,,,,,,,,,,,,,,,,,,,,,,,,,,,,,,,,,,,,,,,,,,,,,,,,,,,,,,,,,,,,,,,,,,,,,,,,,,,,,,,,,,,,,,,,,,,,,,,,,,,,,,,,,,,,,,,,,,,,,,,,,,,,,,,,,,,,,,,,,,,,,,,,,,,
